,0,1
0,32,0
1,39,0
2,41,0
3,49,0
4,50,0
5,55,-2
6,56,0
7,60,-5
8,56,-3
9,55,-6
10,49,-6
11,47,-6
12,41,-4
13,36,-6
14,26,-3
15,19,-1
16,11,0
17,3,0
18,-1,0
19,-6,0
20,-11,0
21,-16,0
22,-20,1
23,-23,1
24,-23,1
25,-24,1
26,-24,2
27,-24,1
28,-22,1
29,-21,0
30,-22,1
31,-20,0
32,-22,0
33,-21,0
34,-23,0
35,-20,0
36,-24,1
37,-20,0
38,-23,1
39,-21,0
40,-24,1
41,-23,0
42,-27,0
43,-24,0
44,-25,1
45,-24,2
46,-25,1
47,-23,1
48,-23,1
49,-20,3
50,-15,4
51,-8,9
52,-4,12
53,-3,9
54,0,2
55,0,0
56,0,0
57,-5,0
58,-8,0
59,-15,0
60,-19,0
61,-22,0
62,-22,0
63,-22,0
64,-21,0
65,-20,3
66,-24,19
67,-23,34
68,10,26
69,121,-31
70,231,-126
71,154,-144
72,-39,-88
73,-88,-59
74,-59,-25
75,-30,0
76,-21,7
77,-17,13
78,-16,13
79,-14,14
80,-13,13
81,-12,15
82,-9,13
83,-9,13
84,-9,13
85,-8,12
86,-3,10
87,-3,12
88,0,9
89,0,9
90,0,8
91,0,8
92,6,5
93,9,6
94,13,5
95,15,4
96,20,3
97,24,3
98,29,0
99,31,0
100,35,0
101,40,0
102,45,0
103,50,0
104,52,0
105,55,0
106,56,0
107,56,-1
108,53,-1
109,49,-1
110,44,-2
111,39,-3
112,35,-4
113,28,-3
114,20,-2
115,9,0
116,4,0
117,-1,0
118,-5,0
119,-12,0
120,-14,0
121,-19,1
122,-19,2
123,-23,2
124,-24,2
125,-24,2
126,-21,2
127,-22,2
128,-21,3
129,-20,1
130,-20,3
131,-19,2
132,-19,1
133,-20,0
134,-22,2
135,-20,0
136,-24,2
137,-21,0
138,-23,3
139,-23,1
140,-26,2
141,-24,1
142,-27,2
143,-25,1
144,-26,0
145,-25,0
146,-24,1
147,-22,2
148,-19,2
149,-13,4
150,-6,7
151,-3,8
152,-2,4
153,-1,0
154,0,0
155,-1,0
156,-4,0
157,-9,0
158,-15,0
159,-19,0
160,-22,1
161,-21,0
162,-22,0
163,-19,0
164,-23,4
165,-24,18
166,-27,36
167,11,23
168,130,-33
169,291,-160
170,130,-139
171,-77,-71
172,-100,-47
173,-57,-13
174,-30,1
175,-20,8
176,-19,10
177,-18,13
178,-18,11
179,-17,13
180,-15,13
181,-12,13
182,-9,13
183,-9,13
184,-6,11
185,-6,12
186,-2,10
187,-1,11
188,0,10
189,0,8
190,1,6
191,4,6
192,8,5
193,10,4
194,14,3
195,18,2
196,23,2
197,29,1
198,33,0
199,38,0
200,42,0
201,47,0
202,51,0
203,57,0
204,57,0
205,60,0
206,56,-1
207,55,0
208,51,-3
209,45,-3
210,41,-6
211,34,-3
212,29,-5
213,19,0
214,11,0
215,0,0
216,0,0
217,-8,0
218,-14,0
219,-19,0
220,-20,0
221,-24,1
222,-25,0
223,-28,1
224,-26,1
225,-27,1
226,-25,2
227,-25,2
228,-22,2
229,-22,1
230,-21,2
231,-22,1
232,-23,2
233,-23,2
234,-24,2
235,-25,1
236,-25,0
237,-25,1
238,-25,1
239,-26,2
240,-26,1
241,-26,2
242,-25,1
243,-26,2
244,-23,0
245,-20,3
246,-14,4
247,-10,7
248,-4,8
249,-5,7
250,0,2
251,0,0
252,0,0
253,-3,0
254,-7,0
255,-15,0
256,-19,1
257,-22,1
258,-24,1
259,-25,0
260,-24,2
261,-21,1
262,-24,15
263,-28,33
264,-7,32
265,95,-15
266,259,-129
267,180,-147
268,-19,-89
269,-94,-52
270,-69,-21
271,-34,-1
272,-21,8
273,-18,12
274,-18,14
275,-16,14
276,-14,14
277,-11,15
278,-9,14
279,-9,14
280,-9,14
281,-6,14
282,-3,13
283,-1,12
284,0,10
285,0,9
286,0,10
287,2,8
288,4,7
289,10,6
290,13,7
291,20,4
292,21,5
293,27,1
294,28,2
295,37,0
296,38,0
297,48,0
298,50,0
299,56,0
300,57,0
301,62,0
302,61,0
303,61,0
304,57,-2
305,55,0
306,49,0
307,45,0
308,37,-1
309,31,0
310,22,0
311,12,0
312,4,0
313,-1,0
314,-6,0
315,-12,1
316,-16,0
317,-20,2
318,-23,2
319,-24,3
320,-25,2
321,-26,2
322,-26,2
323,-24,1
324,-22,2
325,-21,1
326,-22,2
327,-21,2
328,-22,2
329,-20,2
330,-23,3
331,-23,4
332,-24,2
333,-25,4
334,-25,3
335,-25,3
336,-25,3
337,-27,3
338,-26,2
339,-25,4
340,-24,4
341,-23,5
342,-19,4
343,-13,8
344,-5,9
345,-6,12
346,-2,4
347,-2,1
348,0,0
349,-2,0
350,-4,0
351,-12,1
352,-18,2
353,-23,2
354,-24,2
355,-25,2
356,-24,3
357,-23,2
358,-23,8
359,-26,26
360,-18,34
361,40,12
362,180,-72
363,238,-148
364,82,-120
365,-78,-63
366,-88,-35
367,-50,-7
368,-26,5
369,-20,11
370,-19,14
371,-17,16
372,-14,15
373,-13,16
374,-12,15
375,-12,15
376,-9,14
377,-8,12
378,-4,10
379,-3,10
380,0,9
381,0,9
382,0,9
383,0,7
384,4,7
385,6,6
386,10,6
387,14,3
388,17,4
389,22,2
390,26,2
391,32,0
392,36,0
393,43,0
394,45,0
395,52,0
396,55,0
397,60,0
398,60,0
399,61,-1
400,58,-1
401,56,-2
402,51,-3
403,47,-3
404,42,-4
405,35,-3
406,27,-2
407,17,-1
408,9,0
409,2,0
410,-1,0
411,-6,0
412,-11,0
413,-17,0
414,-19,0
415,-20,0
416,-23,2
417,-23,1
418,-23,3
419,-20,0
420,-23,3
421,-19,0
422,-20,3
423,-19,1
424,-22,3
425,-19,1
426,-22,3
427,-19,1
428,-23,2
429,-21,1
430,-23,2
431,-21,2
432,-24,2
433,-21,2
434,-22,3
435,-23,3
436,-24,2
437,-21,2
438,-19,4
439,-16,7
440,-10,9
441,-4,13
442,-1,10
443,0,5
444,0,1
445,0,0
446,-1,0
447,-5,0
448,-12,0
449,-18,1
450,-21,2
451,-21,1
452,-22,2
453,-21,1
454,-21,2
455,-21,12
456,-23,31
457,-5,31
458,75,-6
459,213,-103
460,214,-158
461,-5,-94
462,-96,-61
463,-72,-32
464,-36,-4
465,-22,8
466,-18,10
467,-17,15
468,-14,13
469,-12,15
470,-9,13
471,-11,14
472,-9,13
473,-9,13
474,-4,10
475,-4,12
476,0,9
477,0,9
478,0,8
479,0,8
480,2,6
481,4,6
482,8,5
483,10,5
484,15,4
485,19,3
486,24,3
487,28,1
488,31,0
489,35,0
490,40,0
491,45,0
492,50,0
493,53,0
494,55,0
495,56,-1
496,56,-3
497,55,-3
498,52,-3
499,47,-4
500,44,-6
501,36,-5
502,29,-6
503,20,-2
504,14,-2
505,4,0
506,0,0
507,-7,0
508,-9,0
509,-18,0
510,-19,0
511,-21,1
512,-24,2
513,-25,1
514,-24,1
515,-24,1
516,-24,1
517,-23,0
518,-23,2
519,-23,0
520,-23,2
521,-21,0
522,-23,1
523,-21,0
524,-22,2
525,-23,1
526,-25,2
527,-24,2
528,-25,2
529,-24,1
530,-25,2
531,-24,2
532,-24,2
533,-23,3
534,-20,4
535,-16,6
536,-11,9
537,-8,12
538,-5,11
539,-3,5
540,-1,1
541,0,0
542,-2,0
543,-7,0
544,-11,0
545,-18,0
546,-22,0
547,-21,0
548,-22,2
549,-19,0
550,-22,0
551,-20,11
552,-28,37
553,-10,31
554,69,5
555,241,-116
556,210,-162
557,-15,-94
558,-94,-67
559,-67,-31
560,-36,-3
561,-21,6
562,-20,12
563,-17,14
564,-17,14
565,-13,14
566,-12,11
567,-12,12
568,-9,10
569,-8,11
570,-7,10
571,-5,11
572,-1,10
573,0,9
574,0,7
575,0,7
576,2,6
577,5,5
578,7,5
579,10,3
580,13,3
581,18,2
582,22,2
583,28,1
584,31,1
585,37,0
586,41,0
587,46,0
588,48,0
589,52,0
590,55,-1
591,55,-1
592,52,-2
593,50,-1
594,47,-4
595,44,-4
596,40,-6
597,34,-3
598,28,-6
599,18,-3
600,11,-3
601,1,0
602,0,0
603,-7,0
604,-9,0
605,-17,0
606,-19,0
607,-22,0
608,-24,0
609,-26,1
610,-25,2
611,-25,2
612,-24,1
613,-24,1
614,-22,1
615,-22,1
616,-21,1
617,-21,1
618,-22,2
619,-23,2
620,-24,1
621,-23,1
622,-23,1
623,-25,2
624,-25,1
625,-25,2
626,-25,1
627,-26,2
628,-25,0
629,-25,3
630,-20,3
631,-17,5
632,-9,7
633,-7,10
634,-3,7
635,-3,3
636,0,0
637,0,0
638,0,0
639,-8,0
640,-12,0
641,-19,0
642,-23,1
643,-24,1
644,-24,2
645,-23,0
646,-23,2
647,-23,12
648,-29,32
649,-12,31
650,74,-2
651,238,-114
652,201,-150
653,3,-98
654,-94,-57
655,-75,-26
656,-40,-3
657,-22,6
658,-19,12
659,-17,14
660,-18,15
661,-16,14
662,-14,13
663,-12,12
664,-10,11
665,-9,10
666,-8,10
667,-6,10
668,-1,9
669,0,8
670,0,7
671,0,6
672,1,6
673,3,4
674,6,3
675,10,2
676,14,3
677,20,0
678,22,2
679,30,0
680,32,0
681,40,0
682,42,0
683,49,0
684,50,0
685,57,0
686,58,0
687,60,-1
688,57,-2
689,57,-3
690,52,-4
691,50,-4
692,43,-6
693,38,-6
694,31,-6
695,22,-3
696,13,-2
697,3,0
698,-1,0
699,-6,0
700,-11,0
701,-17,0
702,-21,0
703,-25,0
704,-26,0
705,-26,0
706,-26,0
707,-24,0
708,-23,1
709,-22,0
710,-22,0
711,-21,0
712,-22,0
713,-20,0
714,-22,1
715,-21,1
716,-23,1
717,-21,1
718,-24,1
719,-24,1
720,-25,1
721,-25,1
722,-25,1
723,-25,3
724,-23,2
725,-22,4
726,-19,4
727,-12,7
728,-4,8
729,-4,9
730,-2,1
731,-2,0
732,0,0
733,-5,0
734,-7,0
735,-14,0
736,-18,0
737,-23,2
738,-25,2
739,-27,2
740,-24,0
741,-24,0
742,-25,11
743,-28,30
744,-12,32
745,71,-7
746,221,-105
747,210,-151
748,16,-102
749,-94,-55
750,-80,-27
751,-44,-3
752,-26,6
753,-21,13
754,-19,13
755,-18,15
756,-18,14
757,-16,15
758,-14,13
759,-12,16
760,-9,13
761,-8,13
762,-7,9
763,-7,8
764,-2,7
765,-2,8
766,0,7
767,0,6
768,2,6
769,4,6
770,7,5
771,10,3
772,16,3
773,19,0
774,26,1
775,31,0
776,36,0
777,41,0
778,44,0
779,48,0
780,51,0
781,56,-1
782,55,0
783,55,-1
784,52,-1
785,48,-2
786,43,-3
787,39,-5
788,32,-5
789,24,-3
790,16,-2
791,6,-1
792,-1,0
793,-7,0
794,-13,0
795,-18,0
796,-21,0
797,-26,0
798,-29,0
799,-29,1
800,-29,1
801,-29,1
802,-29,2
803,-29,1
804,-28,1
805,-28,0
806,-28,2
807,-26,0
808,-28,2
809,-28,1
810,-29,3
811,-29,1
812,-29,2
813,-29,1
814,-29,3
815,-29,3
816,-29,3
817,-28,3
818,-28,3
819,-29,3
820,-29,4
821,-25,4
822,-20,5
823,-14,10
824,-9,13
825,-7,9
826,-7,2
827,-6,0
828,-5,0
829,-7,0
830,-12,0
831,-19,1
832,-26,1
833,-28,1
834,-29,2
835,-29,2
836,-29,3
837,-29,4
838,-29,15
839,-30,32
840,-8,31
841,86,-12
842,226,-113
843,213,-157
844,-24,-88
845,-106,-51
846,-77,-22
847,-37,1
848,-28,8
849,-23,15
850,-22,15
851,-20,16
852,-19,16
853,-18,16
854,-18,13
855,-17,15
856,-14,13
857,-13,13
858,-9,11
859,-9,12
860,-4,11
861,-4,12
862,0,9
863,0,9
864,1,7
865,2,7
866,6,5
867,10,5
868,15,4
869,19,3
870,24,2
871,29,2
872,33,2
873,39,0
874,44,0
875,48,0
876,52,0
877,55,0
878,55,0
879,56,0
880,53,-1
881,48,-1
882,44,-3
883,39,-3
884,34,-5
885,26,-3
886,18,-2
887,8,0
888,0,0
889,-4,0
890,-9,0
891,-18,0
892,-20,0
893,-25,1
894,-25,1
895,-29,2
896,-29,2
897,-29,2
898,-25,2
899,-25,2
900,-25,2
901,-25,2
902,-25,2
903,-25,2
904,-24,3
905,-24,2
906,-24,3
907,-24,3
908,-25,3
909,-25,3
910,-27,3
911,-26,2
912,-27,3
913,-25,3
914,-26,3
915,-26,2
916,-26,2
917,-24,3
918,-19,4
919,-15,6
920,-10,10
921,-8,12
922,-7,7
923,-5,2
924,-2,0
925,-2,0
926,-6,0
927,-12,0
928,-18,0
929,-21,1
930,-25,1
931,-26,0
932,-27,2
933,-23,0
934,-23,5
935,-25,21
936,-28,40
937,9,25
938,132,-34
939,287,-161
940,104,-132
941,-70,-77
942,-94,-51
943,-51,-17
944,-28,0
945,-20,7
946,-20,10
947,-19,12
948,-19,11
949,-17,13
950,-15,13
951,-12,11
952,-12,10
953,-10,10
954,-9,9
955,-8,10
956,-5,9
957,-2,9
958,0,9
959,0,8
960,1,6
961,2,5
962,6,6
963,10,4
964,14,2
965,20,2
966,23,2
967,28,0
968,32,0
969,38,0
970,41,0
971,47,0
972,50,0
973,53,-1
974,55,-1
975,57,-1
976,55,-3
977,54,-4
978,49,-5
979,45,-4
980,39,-7
981,34,-6
982,26,-6
983,17,-1
984,7,-1
985,0,0
986,-2,0
987,-8,0
988,-13,0
989,-18,0
990,-19,0
991,-23,1
992,-24,0
993,-25,2
994,-24,0
995,-24,1
996,-23,1
997,-23,1
998,-21,1
999,-21,1
1000,-21,1
1001,-21,1
1002,-21,1
1003,-20,1
1004,-20,1
1005,-20,1
1006,-21,1
1007,-23,2
1008,-23,1
1009,-23,2
1010,-23,1
1011,-23,2
1012,-23,0
1013,-22,2
1014,-18,2
1015,-16,6
1016,-9,8
1017,-7,14
1018,-3,10
1019,-2,6
1020,0,0
1021,0,0
1022,0,0
1023,-8,0
1024,-10,0
1025,-19,0
1026,-20,0
1027,-23,1
1028,-23,1
1029,-23,0
1030,-21,0
1031,-22,8
1032,-27,32
1033,-17,33
1034,56,8
1035,211,-95
1036,210,-151
1037,30,-111
1038,-79,-73
1039,-73,-40
1040,-40,-9
1041,-23,5
1042,-19,12
1043,-19,12
1044,-19,12
1045,-15,11
1046,-13,11
1047,-12,13
1048,-10,13
1049,-9,12
1050,-9,10
1051,-7,10
1052,-4,10
1053,-2,10
1054,0,9
1055,0,7
1056,0,6
1057,1,5
1058,6,5
1059,10,4
1060,12,3
1061,18,1
1062,20,2
1063,27,0
1064,30,2
1065,35,0
1066,38,0
1067,45,0
1068,47,0
1069,52,0
1070,54,0
1071,57,-1
1072,55,-1
1073,55,-2
1074,49,-3
1075,48,-5
1076,42,-6
1077,36,-6
1078,28,-4
1079,21,-2
1080,11,-1
1081,2,0
1082,-1,0
1083,-6,0
1084,-11,0
1085,-16,0
1086,-20,0
1087,-23,1
1088,-25,1
1089,-26,1
1090,-26,2
1091,-26,1
1092,-26,2
1093,-24,2
1094,-22,2
1095,-21,1
1096,-21,2
1097,-20,1
1098,-23,2
1099,-21,1
1100,-23,2
1101,-23,2
1102,-24,2
1103,-24,2
1104,-25,2
1105,-25,2
1106,-25,2
1107,-25,2
1108,-25,2
1109,-24,2
1110,-24,1
1111,-21,3
1112,-18,4
1113,-9,10
1114,-7,9
1115,-7,9
1116,-3,2
1117,0,0
1118,0,0
1119,-6,0
1120,-8,0
1121,-16,0
1122,-19,0
1123,-25,2
1124,-26,1
1125,-27,1
1126,-25,1
1127,-24,2
1128,-26,13
1129,-30,30
1130,-8,33
1131,82,-10
1132,226,-108
1133,205,-149
1134,4,-98
1135,-94,-56
1136,-74,-27
1137,-37,-1
1138,-23,6
1139,-20,12
1140,-19,10
1141,-17,12
1142,-15,10
1143,-16,12
1144,-13,9
1145,-12,12
1146,-9,9
1147,-8,10
1148,-4,9
1149,-4,8
1150,0,7
1151,0,6
1152,0,6
1153,0,5
1154,2,5
1155,4,4
1156,11,4
1157,14,2
1158,20,2
1159,24,0
1160,29,0
1161,33,0
1162,39,0
1163,44,0
1164,49,0
1165,53,-1
1166,56,0
1167,60,-1
1168,61,-2
1169,61,-3
1170,57,-3
1171,53,-5
1172,49,-5
1173,44,-6
1174,39,-7
1175,31,-6
1176,22,-5
1177,12,-3
1178,4,-1
1179,-1,0
1180,-6,0
1181,-12,0
1182,-15,0
1183,-20,0
1184,-23,0
1185,-26,0
1186,-26,0
1187,-26,0
1188,-25,0
1189,-25,0
1190,-25,0
1191,-21,0
1192,-23,0
1193,-21,0
1194,-23,0
1195,-20,0
1196,-23,0
1197,-20,0
1198,-23,0
1199,-24,0
1200,-24,0
1201,-24,0
1202,-27,0
1203,-24,0
1204,-27,0
1205,-24,0
1206,-24,0
1207,-21,1
1208,-18,3
1209,-11,5
1210,-7,7
1211,-5,7
1212,-3,2
1213,-1,0
1214,0,0
1215,-2,0
1216,-7,0
1217,-13,0
1218,-19,0
1219,-24,0
1220,-26,0
1221,-24,0
1222,-24,0
1223,-23,0
1224,-24,7
1225,-27,25
1226,-18,34
1227,51,4
1228,194,-84
1229,266,-167
1230,42,-111
1231,-99,-61
1232,-87,-34
1233,-42,-5
1234,-25,5
1235,-19,11
1236,-18,11
1237,-18,14
1238,-18,11
1239,-14,14
1240,-13,11
1241,-12,12
1242,-9,13
1243,-9,13
1244,-4,8
1245,-6,10
1246,-1,8
1247,0,8
1248,0,7
1249,0,7
1250,3,3
1251,5,3
1252,10,2
1253,13,2
1254,17,0
1255,21,0
1256,26,0
1257,31,0
1258,37,0
1259,42,0
1260,47,0
1261,51,0
1262,55,-1
1263,58,-1
1264,60,-2
1265,60,-2
1266,58,-3
1267,53,-3
1268,49,-3
1269,44,-4
1270,39,-6
1271,30,-3
1272,23,-3
1273,13,0
1274,6,-1
1275,0,0
1276,-5,0
1277,-13,0
1278,-18,0
1279,-23,0
