,0,1
0,12,-14
1,12,-14
2,12,-14
3,13,-13
4,14,-10
5,14,-8
6,14,-6
7,15,-4
8,15,-1
9,16,0
10,18,2
11,19,4
12,20,7
13,21,11
14,21,14
15,22,16
16,23,20
17,24,23
18,25,25
19,24,25
20,23,26
21,23,29
22,22,32
23,21,35
24,21,37
25,21,39
26,21,40
27,21,39
28,20,38
29,20,36
30,19,34
31,18,31
32,16,26
33,14,19
34,12,15
35,8,11
36,6,7
37,5,6
38,5,5
39,4,4
40,3,3
41,3,0
42,2,0
43,2,0
44,2,-2
45,1,-2
46,0,0
47,0,0
48,0,0
49,0,-2
50,0,-4
51,0,-5
52,0,-6
53,0,-7
54,-1,-9
55,-1,-11
56,-1,-13
57,-1,-14
58,-2,-14
59,-3,-13
60,-4,-13
61,-4,-12
62,-4,-12
63,-4,-12
64,-4,-12
65,-4,-13
66,-4,-14
67,-4,-14
68,-5,-14
69,-6,-14
70,-5,-16
71,-4,-17
72,-4,-18
73,-4,-18
74,-4,-16
75,-3,-14
76,-3,-14
77,-3,-16
78,-3,-15
79,-3,-13
80,-4,-13
81,-4,-14
82,-4,-15
83,-3,-15
84,-2,-15
85,-1,-15
86,0,-15
87,0,-12
88,3,-6
89,6,-2
90,7,0
91,4,2
92,1,4
93,0,5
94,-3,4
95,-6,1
96,-7,-1
97,-6,-7
98,-5,-15
99,-4,-21
100,-4,-24
101,-4,-25
102,-3,-25
103,0,-28
104,10,-31
105,21,-22
106,20,20
107,-6,100
108,-53,177
109,-95,184
110,-114,99
111,-108,-4
112,-79,-54
113,-41,-54
114,-12,-42
115,0,-35
116,3,-35
117,3,-35
118,3,-35
119,3,-34
120,3,-32
121,4,-31
122,4,-31
123,4,-31
124,4,-30
125,5,-29
126,5,-28
127,5,-26
128,5,-25
129,5,-22
130,6,-19
131,6,-16
132,8,-14
133,9,-12
134,10,-6
135,10,-2
136,12,-2
137,14,0
138,15,0
139,16,3
140,16,6
141,16,9
142,16,11
143,16,12
144,16,12
145,16,13
146,16,16
147,15,18
148,15,20
149,15,21
150,16,22
151,15,23
152,13,22
153,11,18
154,10,14
155,8,9
156,6,5
157,4,1
158,3,-2
159,2,-5
160,2,-6
161,1,-6
162,0,-6
163,0,-8
164,0,-12
165,0,-11
166,0,-9
167,-1,-9
168,-2,-11
169,-3,-12
170,-3,-14
171,-3,-15
172,-4,-16
173,-4,-16
174,-4,-15
175,-4,-15
176,-4,-15
177,-5,-17
178,-5,-20
179,-6,-21
180,-7,-22
181,-7,-22
182,-6,-22
183,-6,-23
184,-6,-24
185,-7,-25
186,-8,-24
187,-7,-22
188,-7,-20
189,-7,-20
190,-7,-22
191,-7,-22
192,-7,-22
193,-7,-22
194,-7,-23
195,-6,-22
196,-6,-21
197,-6,-21
198,-6,-20
199,-5,-20
200,-4,-20
201,-4,-19
202,-4,-18
203,-4,-16
204,-4,-15
205,-4,-15
206,-3,-15
207,-2,-15
208,-2,-13
209,-1,-12
210,0,-11
211,1,-7
212,5,-3
213,8,0
214,8,0
215,6,1
216,3,4
217,2,7
218,0,7
219,-1,4
220,-3,0
221,-4,-3
222,-2,-8
223,-1,-13
224,-1,-16
225,-1,-17
226,0,-18
227,3,-21
228,14,-24
229,26,-15
230,26,24
231,0,105
232,-46,186
233,-87,197
234,-105,117
235,-100,15
236,-73,-35
237,-35,-35
238,-7,-23
239,4,-17
240,8,-15
241,10,-14
242,11,-13
243,11,-14
244,11,-14
245,11,-13
246,12,-10
247,13,-8
248,13,-7
249,14,-4
250,15,-3
251,15,-2
252,16,-1
253,16,0
254,16,1
255,16,3
256,18,5
257,20,6
258,21,9
259,22,11
260,23,14
261,24,17
262,25,20
263,26,26
264,26,32
265,26,33
266,27,34
267,27,36
268,27,38
269,26,39
270,26,40
271,26,42
272,26,44
273,26,45
274,26,46
275,26,47
276,25,47
277,23,44
278,22,40
279,20,35
280,18,29
281,16,23
282,14,18
283,11,14
284,9,12
285,8,11
286,7,9
287,6,8
288,6,8
289,5,9
290,5,8
291,5,5
292,5,5
293,4,6
294,3,6
295,3,5
296,3,4
297,3,3
298,3,2
299,3,2
300,3,2
301,3,1
302,3,0
303,3,0
304,3,0
305,3,0
306,3,0
307,3,0
308,2,-1
309,2,-1
310,2,-1
311,1,-1
312,1,-1
313,2,0
314,2,-1
315,2,-2
316,2,-3
317,2,-1
318,2,1
319,3,3
320,3,2
321,3,1
322,3,0
323,3,0
324,3,0
325,3,0
326,3,0
327,3,1
328,3,1
329,3,1
330,3,1
331,3,2
332,3,2
333,3,2
334,4,4
335,5,6
336,8,10
337,12,13
338,14,16
339,13,17
340,8,18
341,4,21
342,4,23
343,2,22
344,1,16
345,0,11
346,0,6
347,1,0
348,2,-1
349,3,-2
350,3,-2
351,4,-4
352,12,-8
353,25,-9
354,34,11
355,24,70
356,-13,155
357,-62,208
358,-95,169
359,-104,65
360,-88,-14
361,-53,-34
362,-18,-24
363,2,-14
364,10,-11
365,12,-11
366,13,-11
367,13,-11
368,14,-11
369,14,-11
370,15,-10
371,15,-10
372,15,-11
373,15,-11
374,16,-10
375,16,-6
376,16,-3
377,16,0
378,17,1
379,18,2
380,18,2
381,20,3
382,21,7
383,21,10
384,22,13
385,23,15
386,24,16
387,25,18
388,26,21
389,26,26
390,26,29
391,26,32
392,26,34
393,26,35
394,26,36
395,25,37
396,25,40
397,25,43
398,25,44
399,24,45
400,24,44
401,23,42
402,22,38
403,21,34
404,19,28
405,17,23
406,15,19
407,13,16
408,11,12
409,9,9
410,8,7
411,6,7
412,5,7
413,4,7
414,3,5
415,3,4
416,3,3
417,3,2
418,3,2
419,3,1
420,3,0
421,3,0
422,3,0
423,3,-2
424,3,-4
425,3,-5
426,3,-4
427,3,-4
428,3,-5
429,3,-6
430,3,-6
431,3,-6
432,2,-6
433,2,-5
434,2,-5
435,2,-5
436,1,-6
437,1,-7
438,2,-7
439,2,-6
440,2,-6
441,2,-8
442,1,-8
443,1,-6
444,2,-5
445,2,-5
446,2,-4
447,3,-3
448,3,-2
449,3,-2
450,3,-2
451,3,-3
452,3,-2
453,3,-2
454,3,-2
455,3,-4
456,3,-3
457,3,-2
458,3,-1
459,4,0
460,7,1
461,11,5
462,14,9
463,13,12
464,8,14
465,3,17
466,2,19
467,1,16
468,0,10
469,0,4
470,0,0
471,1,-5
472,2,-10
473,1,-12
474,1,-12
475,3,-12
476,10,-18
477,24,-20
478,33,0
479,21,64
480,-19,153
481,-69,207
482,-101,163
483,-109,56
484,-93,-22
485,-57,-42
486,-20,-34
487,0,-26
488,8,-23
489,11,-23
490,12,-22
491,12,-20
492,12,-18
493,12,-17
494,13,-18
495,12,-16
496,12,-13
497,13,-13
498,15,-12
499,15,-11
500,15,-9
501,16,-7
502,16,-5
503,16,-4
504,16,-1
505,16,0
506,18,1
507,21,5
508,21,9
509,22,11
510,23,13
511,23,15
512,24,19
513,24,22
514,24,24
515,24,25
516,23,27
517,22,28
518,22,29
519,21,31
520,21,34
521,20,34
522,20,34
523,21,35
524,20,36
525,19,35
526,17,30
527,15,24
528,14,21
529,12,16
530,10,11
531,7,8
532,5,5
533,4,3
534,3,2
535,3,1
536,3,0
537,2,0
538,1,-1
539,1,-2
540,0,-2
541,0,-2
542,0,-2
543,0,-2
544,0,-3
545,0,-5
546,-1,-8
547,-1,-8
548,-2,-9
549,-2,-11
550,-3,-14
551,-3,-16
552,-4,-17
553,-4,-16
554,-4,-16
555,-4,-16
556,-4,-18
557,-4,-19
558,-4,-18
559,-4,-17
560,-4,-17
561,-5,-18
562,-4,-18
563,-4,-18
564,-4,-19
565,-4,-19
566,-4,-19
567,-4,-21
568,-4,-22
569,-4,-22
570,-4,-21
571,-4,-20
572,-4,-19
573,-4,-18
574,-4,-17
575,-3,-17
576,-3,-17
577,-4,-17
578,-4,-17
579,-3,-18
580,-2,-18
581,0,-15
582,0,-12
583,3,-8
584,5,-3
585,6,0
586,5,2
587,2,3
588,0,4
589,0,5
590,-4,4
591,-7,0
592,-7,-5
593,-6,-11
594,-4,-19
595,-4,-24
596,-4,-24
597,-3,-24
598,-3,-24
599,3,-29
600,18,-30
601,26,-6
602,11,58
603,-31,148
604,-80,198
605,-107,146
606,-113,32
607,-95,-44
608,-57,-60
609,-23,-48
610,-4,-37
611,2,-33
612,3,-32
613,3,-32
614,3,-32
615,3,-32
616,3,-31
617,3,-32
618,4,-34
619,5,-35
620,5,-34
621,5,-31
622,5,-28
623,5,-24
624,5,-19
625,5,-16
626,7,-15
627,8,-14
628,10,-11
629,10,-8
630,11,-6
631,12,-3
632,13,0
633,15,1
634,16,2
635,16,4
636,16,7
637,16,9
638,16,12
639,16,16
640,16,19
641,16,19
642,16,19
643,15,20
644,14,22
645,14,23
646,15,24
647,15,22
648,13,19
649,11,16
650,9,15
651,7,12
652,5,7
653,3,3
654,3,0
655,2,0
656,2,0
657,1,-1
658,0,-3
659,0,-6
660,0,-9
661,0,-9
662,-1,-8
663,-1,-8
664,-2,-8
665,-3,-8
666,-4,-10
667,-4,-9
668,-4,-8
669,-4,-8
670,-4,-10
671,-4,-12
672,-5,-15
673,-5,-18
674,-5,-19
675,-5,-18
676,-5,-17
677,-5,-16
678,-6,-16
679,-6,-17
680,-6,-17
681,-6,-16
682,-5,-14
683,-5,-14
684,-4,-14
685,-4,-15
686,-4,-15
687,-4,-14
688,-4,-14
689,-4,-16
690,-4,-15
691,-4,-12
692,-4,-12
693,-3,-13
694,-2,-13
695,-1,-11
696,0,-11
697,0,-12
698,0,-11
699,0,-11
700,0,-11
701,0,-11
702,0,-11
703,0,-11
704,0,-10
705,1,-7
706,3,-2
707,6,0
708,9,2
709,10,5
710,8,8
711,4,10
712,2,12
713,1,14
714,0,13
715,-1,9
716,-1,3
717,0,0
718,0,-5
719,0,-7
720,0,-7
721,1,-7
722,3,-9
723,13,-13
724,28,-10
725,33,22
726,12,98
727,-36,191
728,-80,220
729,-102,140
730,-103,26
731,-78,-31
732,-38,-32
733,-7,-20
734,5,-12
735,9,-9
736,10,-8
737,11,-6
738,12,-6
739,12,-6
740,13,-5
741,13,-5
742,13,-5
743,14,-5
744,15,-4
745,16,-2
746,16,0
747,16,0
748,16,0
749,17,1
750,18,4
751,19,6
752,21,9
753,22,11
754,23,13
755,23,16
756,25,19
757,26,22
758,27,24
759,27,27
760,27,30
761,26,33
762,26,35
763,26,37
764,26,39
765,26,42
766,26,44
767,26,45
768,26,47
769,26,47
770,26,47
771,26,46
772,24,44
773,23,40
774,20,35
775,18,29
776,16,24
777,13,19
778,11,16
779,11,15
780,10,14
781,9,13
782,8,13
783,6,11
784,5,9
785,5,8
786,5,7
787,5,6
788,4,6
789,3,6
790,3,6
791,3,5
792,4,4
793,3,3
794,3,2
795,3,0
796,3,0
797,3,1
798,3,1
799,3,0
800,3,0
801,3,-1
802,3,-1
803,3,0
804,3,0
805,3,-1
806,3,-1
807,2,-1
808,2,-1
809,2,-2
810,3,-1
811,3,-1
812,3,-1
813,3,-1
814,3,-2
815,2,-1
816,2,0
817,3,0
818,3,0
819,3,0
820,3,-1
821,3,0
822,3,0
823,3,0
824,3,0
825,3,0
826,3,0
827,3,0
828,3,1
829,4,1
830,7,4
831,11,8
832,14,13
833,15,17
834,11,20
835,6,22
836,4,23
837,2,21
838,1,17
839,1,12
840,1,7
841,2,3
842,3,0
843,3,-1
844,3,-3
845,3,-4
846,8,-8
847,20,-12
848,33,-1
849,32,42
850,4,125
851,-46,208
852,-89,210
853,-106,108
854,-101,-2
855,-70,-39
856,-28,-28
857,-2,-15
858,8,-10
859,11,-10
860,12,-11
861,13,-11
862,13,-8
863,13,-7
864,13,-7
865,13,-8
866,14,-7
867,15,-5
868,15,-5
869,16,-3
870,16,-1
871,16,0
872,16,0
873,17,2
874,18,5
875,18,7
876,19,9
877,21,11
878,21,13
879,22,16
880,23,20
881,25,24
882,26,26
883,26,28
884,26,31
885,26,34
886,26,36
887,26,38
888,25,39
889,24,40
890,24,40
891,24,42
892,24,43
893,23,43
894,22,44
895,21,44
896,21,42
897,20,38
898,18,32
899,16,25
900,14,19
901,11,17
902,10,17
903,8,14
904,6,11
905,5,10
906,5,8
907,4,8
908,3,7
909,3,7
910,3,7
911,3,5
912,3,3
913,3,1
914,3,1
915,3,0
916,2,0
917,1,0
918,1,0
919,0,0
920,0,-1
921,0,-1
922,0,-2
923,0,-2
924,0,-3
925,0,-4
926,0,-3
927,0,-3
928,0,-3
929,0,-5
930,0,-5
931,0,-4
932,0,-4
933,0,-4
934,0,-4
935,0,-4
936,0,-4
937,0,-4
938,0,-4
939,0,-4
940,0,-3
941,0,-3
942,0,-3
943,0,-3
944,0,-2
945,0,-1
946,0,-1
947,0,-2
948,1,-2
949,1,-1
950,2,0
951,1,0
952,1,0
953,3,1
954,7,5
955,10,8
956,12,10
957,9,12
958,5,16
959,2,20
960,1,21
961,0,18
962,-2,11
963,-2,5
964,-1,0
965,0,-2
966,0,-4
967,0,-6
968,0,-8
969,4,-12
970,12,-16
971,26,-12
972,31,19
973,12,91
974,-34,178
975,-83,212
976,-106,144
977,-108,29
978,-85,-38
979,-44,-41
980,-9,-24
981,5,-15
982,9,-14
983,10,-14
984,11,-14
985,11,-13
986,11,-12
987,12,-12
988,12,-12
989,13,-13
990,13,-14
991,13,-11
992,13,-8
993,13,-5
994,14,-2
995,15,0
996,16,0
997,16,1
998,16,3
999,16,5
1000,17,7
1001,18,8
1002,19,10
1003,20,11
1004,21,13
1005,21,18
1006,22,21
1007,23,23
1008,22,26
1009,21,30
1010,21,32
1011,20,32
1012,19,33
1013,18,35
1014,17,36
1015,17,37
1016,17,38
1017,16,37
1018,16,36
1019,15,34
1020,14,30
1021,12,24
1022,10,20
1023,8,15
1024,7,12
1025,5,10
1026,3,9
1027,3,5
1028,3,2
1029,2,1
1030,2,0
1031,1,0
1032,1,-1
1033,0,-1
1034,0,-2
1035,0,-2
1036,-1,-3
1037,-1,-6
1038,-2,-7
1039,-2,-7
1040,-3,-6
1041,-4,-7
1042,-4,-9
1043,-4,-12
1044,-4,-14
1045,-4,-14
1046,-4,-14
1047,-4,-14
1048,-4,-15
1049,-4,-17
1050,-4,-20
1051,-5,-20
1052,-6,-19
1053,-6,-19
1054,-6,-18
1055,-5,-17
1056,-4,-16
1057,-4,-16
1058,-4,-17
1059,-4,-19
1060,-4,-19
1061,-4,-17
1062,-4,-17
1063,-4,-18
1064,-4,-19
1065,-4,-20
1066,-4,-20
1067,-4,-19
1068,-4,-18
1069,-4,-16
1070,-4,-15
1071,-4,-15
1072,-4,-16
1073,-4,-15
1074,-4,-15
1075,-2,-15
1076,0,-14
1077,0,-10
1078,3,-7
1079,4,-4
1080,5,0
1081,3,0
1082,0,1
1083,-1,2
1084,-3,3
1085,-6,2
1086,-7,-1
1087,-7,-7
1088,-6,-15
1089,-5,-20
1090,-5,-23
1091,-6,-24
1092,-4,-24
1093,0,-28
1094,10,-31
1095,21,-18
1096,19,27
1097,-9,107
1098,-58,182
1099,-97,185
1100,-112,94
1101,-106,-13
1102,-77,-58
1103,-38,-53
1104,-10,-41
1105,0,-37
1106,3,-34
1107,3,-33
1108,3,-34
1109,3,-33
1110,3,-32
1111,3,-29
1112,3,-28
1113,3,-28
1114,4,-28
1115,4,-26
1116,4,-25
1117,4,-24
1118,5,-24
1119,5,-22
1120,5,-18
1121,5,-14
1122,7,-11
1123,9,-7
1124,10,-4
1125,11,-1
1126,12,0
1127,13,0
1128,14,2
1129,15,5
1130,16,7
1131,16,8
1132,16,10
1133,16,10
1134,16,13
1135,16,16
1136,16,19
1137,16,21
1138,16,22
1139,16,25
1140,16,27
1141,15,26
1142,14,24
1143,12,21
1144,10,19
1145,7,15
1146,5,10
1147,3,5
1148,3,0
1149,3,0
1150,2,0
1151,1,0
1152,1,-1
1153,0,-2
1154,0,-3
1155,0,-2
1156,0,-3
1157,0,-5
1158,0,-6
1159,-1,-5
1160,-2,-5
1161,-2,-7
1162,-1,-8
1163,-1,-6
1164,-2,-4
1165,-2,-5
1166,-1,-7
1167,-1,-8
1168,-2,-8
1169,-3,-9
1170,-3,-9
1171,-3,-10
1172,-3,-11
1173,-3,-13
1174,-3,-14
1175,-3,-12
1176,-3,-11
1177,-3,-11
1178,-2,-11
1179,-2,-10
1180,-1,-9
1181,-1,-10
1182,-1,-11
1183,0,-11
1184,0,-10
1185,0,-9
1186,0,-9
1187,0,-9
1188,0,-10
1189,0,-10
1190,0,-9
1191,0,-7
1192,0,-7
1193,0,-7
1194,1,-4
1195,1,-3
1196,1,-3
1197,1,-4
1198,1,-4
1199,1,-4
1200,2,0
1201,3,0
1202,7,2
1203,12,7
1204,13,10
1205,10,13
1206,6,14
1207,3,17
1208,2,19
1209,0,18
1210,0,13
1211,0,9
1212,0,5
1213,1,0
1214,2,-2
1215,2,-4
1216,2,-5
1217,5,-7
1218,15,-9
1219,28,-3
1220,32,30
1221,12,101
1222,-30,183
1223,-74,208
1224,-99,140
1225,-101,31
1226,-78,-29
1227,-39,-31
1228,-7,-18
1229,7,-10
1230,12,-9
1231,13,-9
1232,12,-7
1233,12,-6
1234,12,-7
1235,13,-7
1236,13,-6
1237,14,-6
1238,14,-6
1239,15,-4
1240,16,-3
1241,16,-2
1242,16,-2
1243,16,-1
1244,17,0
1245,18,3
1246,19,7
1247,19,10
1248,20,11
1249,21,12
1250,22,14
1251,23,17
1252,25,19
1253,26,23
1254,26,26
1255,26,28
1256,26,30
1257,26,31
1258,27,32
1259,26,33
1260,26,35
1261,26,39
1262,26,43
1263,26,45
1264,26,47
1265,25,47
1266,24,45
1267,23,41
1268,22,37
1269,21,33
1270,19,29
1271,16,23
1272,14,19
1273,11,14
1274,10,11
1275,9,10
1276,8,10
1277,7,10
1278,6,9
1279,5,8
