,0,1
0,2,-27
1,2,-21
2,2,-17
3,2,-16
4,3,-15
5,3,-13
6,2,-11
7,2,-10
8,1,-7
9,1,-5
10,0,-3
11,0,-1
12,0,0
13,0,0
14,0,1
15,0,2
16,0,3
17,0,3
18,0,3
19,0,3
20,0,3
21,0,2
22,0,1
23,0,0
24,0,0
25,0,-2
26,0,-3
27,0,-5
28,0,-6
29,1,-6
30,0,-7
31,0,-7
32,0,-6
33,0,-5
34,0,-4
35,0,-3
36,0,-1
37,0,0
38,0,0
39,0,1
40,0,1
41,-1,1
42,-1,2
43,-1,2
44,-1,3
45,-1,2
46,-1,2
47,-1,1
48,-1,1
49,-2,1
50,-2,1
51,-2,1
52,-2,1
53,-2,1
54,-2,1
55,-2,1
56,-2,4
57,-2,7
58,-3,11
59,-4,13
60,-5,15
61,-6,16
62,-7,14
63,-8,13
64,-8,13
65,-8,13
66,-7,11
67,-4,8
68,-2,4
69,0,0
70,0,-4
71,0,-8
72,1,-10
73,1,-10
74,1,-10
75,1,-10
76,2,-9
77,1,-6
78,-1,2
79,-13,21
80,-33,46
81,-48,63
82,-52,56
83,-43,31
84,-25,2
85,-8,-18
86,0,-32
87,5,-38
88,7,-37
89,8,-29
90,7,-21
91,7,-16
92,7,-14
93,7,-13
94,7,-12
95,6,-10
96,6,-9
97,5,-6
98,4,-5
99,4,-3
100,3,-1
101,3,0
102,2,2
103,2,3
104,2,4
105,2,4
106,2,4
107,2,5
108,2,6
109,2,6
110,2,5
111,2,4
112,2,3
113,2,1
114,2,0
115,2,-1
116,3,-2
117,3,-3
118,3,-4
119,3,-5
120,3,-5
121,2,-4
122,2,-3
123,2,-3
124,1,-2
125,1,0
126,1,0
127,1,0
128,1,1
129,1,2
130,1,3
131,1,3
132,0,4
133,0,4
134,0,4
135,0,4
136,0,4
137,0,4
138,0,3
139,0,2
140,0,2
141,0,2
142,0,4
143,-1,6
144,-2,11
145,-3,14
146,-3,16
147,-4,17
148,-5,18
149,-6,16
150,-6,15
151,-6,14
152,-6,15
153,-5,13
154,-2,10
155,0,4
156,0,0
157,2,-3
158,2,-6
159,3,-8
160,3,-8
161,3,-9
162,3,-8
163,3,-7
164,2,-4
165,0,3
166,-12,23
167,-31,49
168,-47,66
169,-51,59
170,-41,32
171,-24,3
172,-7,-17
173,2,-33
174,7,-39
175,9,-36
176,9,-29
177,9,-21
178,9,-15
179,9,-13
180,8,-12
181,8,-10
182,8,-9
183,8,-8
184,7,-5
185,6,-3
186,5,-1
187,5,0
188,4,0
189,4,2
190,3,4
191,3,5
192,2,6
193,2,6
194,2,7
195,2,6
196,2,6
197,2,5
198,3,4
199,3,3
200,3,2
201,3,0
202,3,0
203,3,0
204,3,-1
205,3,-2
206,3,-3
207,2,-2
208,2,-1
209,2,-1
210,2,0
211,2,0
212,2,1
213,2,1
214,2,1
215,1,2
216,1,4
217,1,6
218,0,7
219,0,6
220,0,6
221,0,6
222,0,6
223,0,6
224,0,5
225,0,5
226,0,5
227,0,5
228,0,4
229,0,4
230,0,5
231,0,5
232,0,6
233,0,9
234,0,12
235,-1,14
236,-2,16
237,-3,18
238,-5,18
239,-5,17
240,-5,16
241,-5,16
242,-4,15
243,-3,12
244,-1,8
245,0,4
246,1,0
247,2,-4
248,3,-7
249,4,-8
250,4,-8
251,4,-8
252,4,-7
253,4,-5
254,3,-1
255,-2,11
256,-20,35
257,-39,59
258,-50,67
259,-47,50
260,-33,20
261,-16,-5
262,-1,-24
263,5,-35
264,9,-37
265,10,-33
266,10,-25
267,10,-18
268,10,-14
269,10,-13
270,9,-11
271,9,-10
272,9,-9
273,8,-7
274,7,-5
275,7,-3
276,6,-1
277,6,0
278,6,1
279,5,2
280,4,4
281,4,4
282,4,5
283,4,5
284,4,6
285,3,6
286,3,5
287,3,5
288,3,4
289,3,3
290,4,2
291,4,0
292,4,0
293,4,0
294,4,-1
295,3,-2
296,3,-2
297,3,-2
298,3,-2
299,3,-2
300,3,-1
301,3,0
302,2,0
303,2,0
304,2,2
305,2,3
306,2,5
307,1,5
308,1,4
309,1,4
310,1,5
311,1,4
312,1,3
313,1,3
314,1,3
315,1,2
316,1,2
317,1,2
318,1,2
319,0,4
320,0,8
321,0,11
322,0,14
323,-1,16
324,-3,17
325,-4,17
326,-4,15
327,-4,14
328,-5,14
329,-4,13
330,-2,10
331,0,6
332,1,2
333,2,-1
334,3,-5
335,3,-8
336,3,-8
337,3,-8
338,3,-8
339,3,-7
340,4,-6
341,3,-1
342,-1,9
343,-19,33
344,-38,56
345,-50,64
346,-47,47
347,-33,18
348,-15,-6
349,-2,-25
350,6,-36
351,10,-39
352,11,-34
353,11,-26
354,11,-19
355,11,-14
356,11,-13
357,11,-12
358,10,-12
359,9,-10
360,8,-9
361,7,-7
362,7,-4
363,7,-3
364,6,-1
365,6,0
366,6,1
367,6,2
368,6,3
369,5,4
370,5,4
371,5,4
372,5,4
373,5,4
374,5,3
375,5,2
376,5,0
377,5,0
378,6,-1
379,6,-2
380,5,-3
381,5,-4
382,4,-4
383,4,-3
384,4,-3
385,3,-3
386,3,-3
387,3,-2
388,3,-1
389,3,0
390,3,0
391,3,0
392,2,1
393,2,2
394,2,3
395,2,3
396,2,4
397,1,4
398,1,4
399,1,4
400,1,3
401,1,3
402,1,3
403,1,3
404,1,2
405,1,2
406,1,2
407,1,2
408,0,2
409,0,4
410,0,7
411,0,12
412,-1,14
413,-1,15
414,-3,17
415,-4,17
416,-4,15
417,-4,14
418,-4,14
419,-3,13
420,-1,11
421,0,6
422,1,1
423,3,-2
424,4,-6
425,4,-8
426,4,-8
427,4,-8
428,4,-9
429,4,-8
430,4,-6
431,3,0
432,-6,14
433,-25,39
434,-42,60
435,-49,60
436,-42,39
437,-28,11
438,-10,-12
439,1,-28
440,8,-37
441,11,-37
442,12,-31
443,11,-24
444,11,-18
445,11,-14
446,11,-13
447,10,-11
448,9,-10
449,9,-9
450,8,-7
451,7,-5
452,7,-3
453,7,-1
454,6,0
455,6,0
456,5,2
457,5,4
458,5,5
459,5,6
460,5,6
461,5,6
462,5,6
463,4,5
464,4,4
465,4,4
466,5,3
467,5,1
468,5,0
469,4,0
470,4,0
471,4,0
472,4,-1
473,4,-2
474,4,-2
475,4,-2
476,4,-2
477,3,-1
478,3,0
479,3,0
480,3,0
481,3,2
482,2,3
483,2,4
484,2,5
485,2,6
486,1,6
487,1,6
488,1,5
489,1,4
490,1,3
491,1,3
492,1,3
493,1,4
494,1,5
495,0,5
496,0,7
497,0,12
498,-1,15
499,-1,17
500,-2,18
501,-4,19
502,-5,18
503,-5,16
504,-5,15
505,-5,15
506,-3,14
507,-1,11
508,0,6
509,1,1
510,2,-2
511,3,-5
512,3,-7
513,3,-7
514,4,-8
515,4,-8
516,4,-8
517,4,-5
518,1,1
519,-9,19
520,-28,44
521,-44,62
522,-50,59
523,-42,36
524,-27,8
525,-10,-14
526,1,-30
527,8,-38
528,10,-37
529,11,-31
530,11,-23
531,11,-17
532,11,-14
533,10,-12
534,10,-11
535,10,-10
536,9,-9
537,9,-8
538,9,-6
539,9,-4
540,9,-2
541,9,0
542,9,0
543,9,0
544,9,2
545,10,3
546,10,4
547,11,4
548,12,4
549,13,4
550,14,3
551,14,2
552,15,1
553,15,0
554,16,0
555,16,0
556,16,0
557,16,-1
558,16,-2
559,16,-2
560,16,-1
561,16,-1
562,16,-1
563,16,0
564,17,0
565,18,2
566,18,4
567,18,6
568,18,7
569,19,8
570,19,9
571,19,10
572,20,11
573,20,12
574,19,13
575,19,14
576,19,14
577,18,15
578,18,16
579,18,16
580,18,17
581,17,18
582,17,19
583,17,20
584,16,23
585,15,28
586,15,31
587,14,34
588,13,35
589,12,35
590,12,34
591,12,33
592,12,33
593,12,33
594,13,32
595,15,28
596,18,23
597,20,16
598,20,11
599,21,8
600,22,7
601,23,6
602,23,5
603,23,5
604,24,6
605,24,8
606,21,18
607,8,38
608,-8,64
609,-21,81
610,-24,74
611,-15,48
612,-1,19
613,12,-2
614,23,-16
615,28,-21
616,30,-19
617,30,-14
618,30,-7
619,29,-3
620,28,0
621,27,1
622,26,3
623,25,4
624,24,6
625,24,6
626,23,8
627,23,9
628,22,11
629,22,11
630,21,13
631,21,14
632,21,14
633,21,14
634,20,15
635,20,15
636,20,14
637,19,14
638,18,14
639,18,14
640,18,14
641,18,12
642,18,10
643,18,9
644,18,9
645,17,7
646,17,5
647,16,4
648,16,4
649,15,3
650,15,2
651,15,2
652,14,2
653,14,3
654,14,3
655,13,3
656,13,4
657,12,4
658,11,5
659,11,6
660,10,6
661,9,6
662,9,6
663,8,5
664,7,4
665,7,4
666,6,3
667,6,2
668,5,2
669,4,2
670,4,2
671,3,2
672,2,2
673,1,2
674,0,3
675,0,6
676,-1,10
677,-2,12
678,-4,14
679,-6,15
680,-8,14
681,-8,11
682,-9,11
683,-9,11
684,-10,10
685,-10,7
686,-7,2
687,-6,0
688,-5,-6
689,-4,-11
690,-4,-13
691,-4,-14
692,-4,-15
693,-4,-15
694,-4,-15
695,-4,-13
696,-6,-7
697,-15,7
698,-33,32
699,-51,54
700,-59,56
701,-54,34
702,-40,3
703,-23,-21
704,-10,-38
705,-2,-47
706,0,-48
707,0,-42
708,0,-34
709,0,-27
710,0,-23
711,0,-21
712,0,-19
713,-1,-18
714,-1,-16
715,-2,-14
716,-3,-12
717,-4,-10
718,-4,-8
719,-5,-6
720,-5,-4
721,-6,-2
722,-6,-1
723,-6,0
724,-6,0
725,-6,0
726,-6,0
727,-6,0
728,-6,0
729,-5,0
730,-5,-1
731,-5,-2
732,-4,-3
733,-4,-5
734,-4,-7
735,-4,-8
736,-4,-9
737,-4,-10
738,-4,-11
739,-3,-11
740,-3,-11
741,-3,-11
742,-3,-10
743,-3,-9
744,-3,-9
745,-3,-8
746,-3,-7
747,-4,-6
748,-4,-4
749,-4,-3
750,-4,-3
751,-4,-3
752,-4,-3
753,-4,-3
754,-4,-3
755,-4,-3
756,-4,-3
757,-4,-4
758,-4,-4
759,-4,-3
760,-4,-2
761,-5,0
762,-6,3
763,-6,7
764,-6,10
765,-8,11
766,-10,12
767,-10,11
768,-10,10
769,-10,9
770,-11,9
771,-9,8
772,-6,4
773,-3,0
774,-1,-4
775,0,-9
776,0,-12
777,0,-13
778,0,-14
779,0,-15
780,0,-15
781,0,-14
782,0,-11
783,0,-5
784,-10,9
785,-27,33
786,-44,53
787,-51,53
788,-45,32
789,-30,3
790,-14,-20
791,-2,-36
792,3,-45
793,6,-45
794,7,-39
795,6,-30
796,6,-23
797,6,-19
798,6,-17
799,5,-16
800,5,-15
801,4,-12
802,3,-10
803,2,-8
804,2,-6
805,2,-4
806,1,-3
807,1,-2
808,1,0
809,0,0
810,0,1
811,0,1
812,0,1
813,1,2
814,1,2
815,1,1
816,1,0
817,1,0
818,1,-1
819,1,-3
820,1,-4
821,1,-4
822,2,-5
823,2,-6
824,2,-7
825,1,-8
826,1,-9
827,1,-8
828,1,-6
829,1,-5
830,1,-4
831,1,-3
832,1,-2
833,1,-1
834,1,-1
835,0,0
836,0,0
837,0,0
838,0,0
839,0,0
840,0,0
841,0,0
842,0,0
843,0,0
844,0,0
845,0,-1
846,0,-1
847,0,-1
848,0,-1
849,0,-1
850,0,0
851,0,0
852,-1,3
853,-2,7
854,-2,9
855,-2,10
856,-4,12
857,-5,13
858,-6,12
859,-6,11
860,-6,11
861,-6,11
862,-3,8
863,-1,4
864,0,1
865,0,-3
866,1,-7
867,2,-9
868,2,-10
869,2,-11
870,2,-11
871,2,-10
872,3,-8
873,1,-2
874,-7,12
875,-24,36
876,-41,57
877,-49,59
878,-44,40
879,-30,12
880,-14,-11
881,-1,-29
882,5,-39
883,9,-40
884,9,-35
885,9,-27
886,9,-21
887,8,-17
888,8,-15
889,8,-14
890,7,-13
891,7,-12
892,6,-9
893,5,-6
894,4,-4
895,4,-2
896,4,-1
897,4,0
898,3,0
899,3,0
900,2,1
901,2,3
902,2,4
903,2,4
904,2,4
905,2,3
906,2,2
907,2,1
908,3,0
909,3,0
910,3,-1
911,3,-2
912,3,-4
913,3,-5
914,3,-6
915,2,-6
916,2,-5
917,2,-5
918,2,-5
919,2,-4
920,2,-2
921,2,-1
922,1,-1
923,1,0
924,1,0
925,1,1
926,1,1
927,1,2
928,0,2
929,0,2
930,0,3
931,0,2
932,0,1
933,0,0
934,0,0
935,0,0
936,0,0
937,0,0
938,0,2
939,0,5
940,0,9
941,-1,11
942,-1,13
943,-3,14
944,-4,15
945,-4,12
946,-4,10
947,-5,11
948,-4,11
949,-2,8
950,0,5
951,0,1
952,2,-4
953,3,-8
954,4,-11
955,4,-12
956,4,-13
957,4,-13
958,4,-13
959,5,-11
960,4,-7
961,-1,5
962,-16,26
963,-34,49
964,-46,59
965,-46,47
966,-33,19
967,-17,-7
968,-2,-26
969,5,-38
970,10,-42
971,11,-38
972,11,-31
973,11,-23
974,11,-18
975,11,-17
976,10,-16
977,10,-14
978,9,-12
979,8,-10
980,7,-8
981,7,-6
982,7,-5
983,6,-4
984,6,-3
985,5,-1
986,4,0
987,4,0
988,4,0
989,4,1
990,4,2
991,4,2
992,3,1
993,3,1
994,3,0
995,4,0
996,4,-1
997,4,-2
998,4,-3
999,4,-4
1000,4,-5
1001,4,-5
1002,4,-6
1003,4,-6
1004,4,-6
1005,3,-5
1006,3,-4
1007,3,-3
1008,3,-2
1009,3,-1
1010,3,0
1011,2,0
1012,2,0
1013,2,0
1014,2,1
1015,2,2
1016,1,2
1017,1,1
1018,2,1
1019,2,0
1020,1,0
1021,1,0
1022,1,0
1023,1,0
1024,1,0
1025,1,0
1026,1,0
1027,1,0
1028,1,0
1029,0,3
1030,0,7
1031,0,11
1032,0,12
1033,-2,13
1034,-3,14
1035,-3,12
1036,-4,11
1037,-4,11
1038,-4,11
1039,-2,8
1040,0,3
1041,0,0
1042,2,-4
1043,3,-8
1044,4,-10
1045,4,-11
1046,4,-11
1047,4,-12
1048,5,-11
1049,5,-9
1050,3,-4
1051,-2,6
1052,-15,26
1053,-34,49
1054,-47,60
1055,-47,48
1056,-35,20
1057,-18,-5
1058,-2,-26
1059,5,-39
1060,10,-43
1061,11,-39
1062,11,-32
1063,11,-24
1064,11,-18
1065,11,-16
1066,11,-15
1067,11,-14
1068,10,-12
1069,10,-11
1070,10,-10
1071,9,-8
1072,9,-6
1073,8,-4
1074,7,-3
1075,7,-1
1076,7,0
1077,7,0
1078,6,0
1079,6,0
1080,6,1
1081,6,1
1082,6,2
1083,6,1
1084,6,0
1085,6,0
1086,6,-1
1087,7,-2
1088,7,-2
1089,7,-2
1090,7,-3
1091,7,-5
1092,7,-7
1093,7,-7
1094,6,-6
1095,6,-4
1096,6,-4
1097,6,-3
1098,6,-2
1099,6,-1
1100,6,0
1101,5,0
1102,4,1
1103,4,2
1104,3,3
1105,3,3
1106,3,3
1107,3,3
1108,3,2
1109,3,1
1110,3,1
1111,3,1
1112,3,1
1113,3,1
1114,3,0
1115,2,0
1116,2,1
1117,1,6
1118,0,10
1119,0,11
1120,0,12
1121,0,13
1122,-1,13
1123,-2,11
1124,-3,10
1125,-3,10
1126,-2,9
1127,0,6
1128,1,2
1129,3,0
1130,4,-5
1131,5,-9
1132,6,-11
1133,6,-12
1134,6,-12
1135,6,-12
1136,6,-11
1137,6,-9
1138,4,-5
1139,-1,7
1140,-16,29
1141,-35,52
1142,-47,60
1143,-45,44
1144,-32,15
1145,-15,-9
1146,0,-27
1147,8,-40
1148,12,-43
1149,13,-38
1150,12,-30
1151,12,-23
1152,12,-20
1153,12,-18
1154,11,-17
1155,11,-16
1156,11,-15
1157,10,-13
1158,9,-10
1159,9,-8
1160,8,-6
1161,8,-5
1162,7,-3
1163,6,-2
1164,6,0
1165,6,0
1166,6,0
1167,5,1
1168,5,2
1169,5,3
1170,5,3
1171,5,1
1172,5,0
1173,5,0
1174,5,0
1175,5,0
1176,5,-2
1177,6,-3
1178,5,-5
1179,5,-5
1180,5,-7
1181,5,-6
1182,4,-5
1183,4,-4
1184,4,-4
1185,4,-3
1186,4,-2
1187,4,-1
1188,3,0
1189,3,0
1190,3,0
1191,3,0
1192,3,0
1193,3,1
1194,3,0
1195,3,0
1196,2,0
1197,2,0
1198,2,0
1199,2,-1
1200,2,-1
1201,2,-1
1202,2,-1
1203,2,-1
1204,2,-1
1205,2,-1
1206,2,0
1207,1,2
1208,0,6
1209,0,9
1210,0,11
1211,-1,13
1212,-2,14
1213,-3,12
1214,-3,10
1215,-3,10
1216,-3,10
1217,-1,7
1218,0,3
1219,1,0
1220,3,-5
1221,4,-9
1222,6,-11
1223,6,-13
1224,6,-13
1225,6,-13
1226,6,-12
1227,6,-11
1228,5,-7
1229,0,3
1230,-13,23
1231,-32,49
1232,-46,62
1233,-47,52
1234,-36,24
1235,-19,-1
1236,-2,-21
1237,6,-36
1238,10,-40
1239,11,-37
1240,12,-29
1241,12,-22
1242,12,-19
1243,12,-18
1244,12,-17
1245,11,-15
1246,11,-13
1247,10,-12
1248,10,-10
1249,9,-9
1250,8,-7
1251,7,-4
1252,7,-2
1253,7,-1
1254,6,0
1255,6,0
1256,6,0
1257,6,1
1258,5,1
1259,5,2
1260,5,3
1261,4,4
1262,4,3
1263,5,2
1264,5,1
1265,5,0
1266,6,0
1267,6,-2
1268,6,-4
1269,6,-5
1270,6,-5
1271,6,-6
1272,5,-5
1273,5,-5
1274,5,-4
1275,5,-3
1276,4,-1
1277,4,0
1278,4,0
1279,4,0
