,0,1
0,15,46
1,-8,-3
2,-21,-26
3,-26,-41
4,-28,-41
5,-30,-44
6,-31,-44
7,-30,-48
8,-30,-44
9,-28,-46
10,-28,-43
11,-28,-45
12,-29,-44
13,-30,-45
14,-30,-43
15,-30,-44
16,-31,-44
17,-32,-45
18,-32,-46
19,-33,-47
20,-34,-49
21,-35,-49
22,-36,-49
23,-35,-47
24,-33,-44
25,-30,-40
26,-25,-34
27,-19,-25
28,-11,-14
29,-5,-6
30,-1,0
31,1,3
32,2,6
33,3,1
34,3,1
35,2,-1
36,1,0
37,0,-4
38,0,-3
39,0,-5
40,0,-5
41,0,-7
42,0,-5
43,0,-7
44,0,-7
45,0,-6
46,0,-6
47,0,-7
48,0,-6
49,0,-6
50,0,-6
51,0,-6
52,0,-8
53,0,-5
54,0,-7
55,0,-6
56,0,-7
57,0,-5
58,0,-6
59,1,-5
60,2,-5
61,2,-5
62,1,-7
63,0,-7
64,0,-7
65,0,-7
66,0,-5
67,0,-6
68,0,-6
69,0,-7
70,0,-7
71,0,-7
72,1,-6
73,3,-5
74,3,-3
75,4,0
76,5,1
77,7,3
78,8,5
79,7,9
80,5,4
81,4,4
82,2,-5
83,0,-5
84,0,-8
85,0,-7
86,0,-11
87,0,-6
88,0,-9
89,0,-5
90,7,-4
91,28,19
92,64,52
93,100,98
94,129,135
95,144,169
96,144,177
97,133,170
98,118,153
99,98,134
100,73,111
101,46,84
102,17,46
103,-5,3
104,-19,-24
105,-26,-38
106,-29,-43
107,-30,-45
108,-30,-46
109,-31,-46
110,-31,-46
111,-30,-45
112,-30,-46
113,-30,-44
114,-29,-45
115,-29,-43
116,-30,-46
117,-31,-44
118,-31,-46
119,-32,-44
120,-34,-47
121,-34,-46
122,-34,-49
123,-36,-50
124,-37,-51
125,-36,-46
126,-33,-45
127,-31,-42
128,-27,-36
129,-21,-27
130,-14,-15
131,-6,-8
132,-1,0
133,1,0
134,2,5
135,3,0
136,2,1
137,1,-1
138,0,0
139,0,-4
140,0,-5
141,0,-8
142,0,-6
143,0,-6
144,0,-7
145,0,-8
146,0,-7
147,0,-8
148,0,-9
149,0,-9
150,0,-9
151,0,-7
152,0,-6
153,0,-5
154,0,-6
155,0,-7
156,0,-8
157,0,-8
158,0,-6
159,0,-8
160,0,-6
161,0,-8
162,0,-5
163,0,-8
164,0,-5
165,0,-9
166,0,-5
167,1,-7
168,2,-5
169,2,-8
170,2,-5
171,2,-5
172,2,-5
173,2,-8
174,3,-6
175,3,-5
176,4,-2
177,5,0
178,7,2
179,10,6
180,12,9
181,11,10
182,8,8
183,6,6
184,4,1
185,3,0
186,3,-5
187,3,-4
188,4,-5
189,3,-4
190,3,-4
191,5,-2
192,15,5
193,38,26
194,73,63
195,109,106
196,137,148
197,151,176
198,152,186
199,142,177
200,127,164
201,107,146
202,82,125
203,54,93
204,25,54
205,1,12
206,-12,-18
207,-19,-29
208,-22,-37
209,-23,-36
210,-22,-40
211,-21,-37
212,-21,-37
213,-21,-33
214,-21,-37
215,-21,-35
216,-21,-38
217,-21,-34
218,-21,-38
219,-22,-35
220,-23,-37
221,-24,-37
222,-24,-39
223,-25,-38
224,-26,-39
225,-27,-38
226,-27,-38
227,-26,-38
228,-24,-34
229,-20,-29
230,-15,-22
231,-8,-15
232,-2,-5
233,2,3
234,6,10
235,9,13
236,11,14
237,13,14
238,13,11
239,12,9
240,11,7
241,10,7
242,10,2
243,10,3
244,11,2
245,10,3
246,10,2
247,10,5
248,9,3
249,9,2
250,10,1
251,10,4
252,10,4
253,10,3
254,10,1
255,10,1
256,10,3
257,10,1
258,10,3
259,9,1
260,8,4
261,6,1
262,6,1
263,6,0
264,5,0
265,5,0
266,5,0
267,6,-2
268,5,-1
269,5,-1
270,4,0
271,4,-1
272,5,0
273,5,-1
274,4,-1
275,4,-1
276,6,0
277,8,2
278,9,5
279,11,9
280,13,10
281,14,13
282,12,13
283,9,10
284,7,6
285,5,0
286,3,-2
287,3,-4
288,4,-4
289,3,-4
290,2,-4
291,2,-5
292,5,-1
293,19,4
294,49,40
295,87,77
296,121,123
297,143,155
298,151,184
299,150,182
300,138,174
301,120,159
302,99,141
303,74,115
304,45,86
305,15,42
306,-7,-1
307,-21,-26
308,-27,-37
309,-29,-44
310,-30,-48
311,-31,-46
312,-31,-47
313,-30,-46
314,-30,-46
315,-31,-45
316,-31,-45
317,-31,-43
318,-31,-44
319,-32,-46
320,-33,-48
321,-34,-48
322,-35,-48
323,-35,-51
324,-37,-53
325,-38,-54
326,-38,-52
327,-39,-52
328,-38,-49
329,-35,-47
330,-31,-41
331,-25,-33
332,-18,-23
333,-10,-13
334,-5,-4
335,0,0
336,2,3
337,3,4
338,3,1
339,3,1
340,3,0
341,2,0
342,2,-4
343,1,-1
344,1,-6
345,1,-3
346,0,-8
347,0,-4
348,0,-6
349,0,-4
350,0,-6
351,0,-5
352,0,-6
353,0,-6
354,0,-8
355,1,-6
356,1,-6
357,0,-5
358,0,-5
359,0,-7
360,0,-6
361,0,-7
362,0,-7
363,1,-6
364,0,-7
365,0,-7
366,0,-7
367,0,-6
368,0,-8
369,0,-7
370,0,-7
371,0,-6
372,0,-7
373,0,-6
374,0,-8
375,0,-5
376,1,-8
377,2,-4
378,4,-3
379,5,1
380,7,2
381,7,5
382,6,7
383,4,6
384,3,2
385,2,0
386,0,-7
387,0,-11
388,0,-7
389,0,-8
390,0,-8
391,0,-12
392,0,-7
393,5,-4
394,26,15
395,60,48
396,97,93
397,126,133
398,141,167
399,142,177
400,134,170
401,120,154
402,101,137
403,79,117
404,52,91
405,23,55
406,-1,12
407,-18,-19
408,-28,-38
409,-31,-44
410,-32,-46
411,-33,-48
412,-32,-49
413,-32,-48
414,-32,-47
415,-31,-47
416,-31,-45
417,-33,-47
418,-33,-45
419,-33,-48
420,-33,-45
421,-34,-48
422,-35,-44
423,-36,-51
424,-37,-48
425,-37,-53
426,-38,-50
427,-38,-54
428,-38,-49
429,-37,-49
430,-34,-42
431,-29,-39
432,-22,-28
433,-15,-20
434,-8,-9
435,-2,-1
436,0,1
437,2,5
438,2,2
439,1,0
440,1,-1
441,1,-1
442,0,-4
443,0,-4
444,0,-6
445,0,-5
446,0,-6
447,0,-7
448,0,-7
449,0,-7
450,0,-7
451,0,-7
452,0,-6
453,0,-7
454,0,-6
455,0,-7
456,0,-7
457,0,-9
458,0,-7
459,0,-8
460,0,-7
461,0,-6
462,0,-7
463,0,-5
464,0,-8
465,0,-8
466,0,-9
467,0,-6
468,0,-8
469,1,-4
470,1,-8
471,0,-6
472,0,-8
473,0,-6
474,0,-10
475,0,-6
476,0,-9
477,1,-3
478,2,-4
479,3,-1
480,6,0
481,8,3
482,9,5
483,7,6
484,5,5
485,3,1
486,0,-3
487,0,-6
488,0,-8
489,0,-10
490,0,-9
491,1,-8
492,0,-8
493,1,-7
494,11,1
495,35,25
496,70,62
497,105,105
498,132,141
499,145,170
500,143,177
501,131,167
502,115,149
503,94,133
504,70,108
505,43,80
506,14,39
507,-7,0
508,-20,-29
509,-26,-39
510,-29,-45
511,-30,-45
512,-31,-46
513,-31,-46
514,-30,-44
515,-30,-46
516,-30,-44
517,-30,-45
518,-30,-42
519,-30,-45
520,-30,-44
521,-31,-46
522,-31,-44
523,-32,-47
524,-33,-44
525,-34,-46
526,-35,-46
527,-36,-49
528,-36,-49
529,-35,-48
530,-33,-44
531,-30,-40
532,-24,-32
533,-18,-23
534,-12,-14
535,-6,-4
536,-1,1
537,1,3
538,2,3
539,3,2
540,2,1
541,1,0
542,1,-2
543,1,-4
544,0,-3
545,0,-5
546,0,-5
547,1,-5
548,1,-4
549,1,-8
550,1,-4
551,1,-7
552,0,-5
553,0,-7
554,0,-3
555,0,-8
556,0,-5
557,0,-7
558,0,-6
559,0,-6
560,1,-6
561,0,-6
562,0,-6
563,0,-6
564,1,-5
565,1,-5
566,0,-7
567,0,-5
568,0,-7
569,1,-6
570,2,-6
571,2,-5
572,2,-6
573,1,-6
574,1,-7
575,1,-6
576,2,-7
577,2,-6
578,2,-3
579,4,-1
580,6,1
581,8,4
582,8,8
583,7,8
584,6,8
585,4,1
586,1,-1
587,1,-6
588,0,-5
589,0,-7
590,0,-8
591,0,-8
592,0,-8
593,0,-6
594,8,-3
595,32,21
596,68,57
597,105,104
598,132,140
599,146,177
600,145,176
601,133,170
602,116,151
603,96,134
604,72,110
605,44,86
606,15,42
607,-7,2
608,-21,-27
609,-26,-39
610,-29,-45
611,-30,-45
612,-31,-46
613,-31,-45
614,-31,-45
615,-31,-45
616,-30,-45
617,-30,-45
618,-30,-44
619,-31,-44
620,-31,-44
621,-31,-47
622,-33,-47
623,-34,-46
624,-35,-48
625,-35,-48
626,-36,-50
627,-37,-49
628,-37,-50
629,-36,-46
630,-35,-46
631,-31,-39
632,-26,-36
633,-19,-25
634,-13,-16
635,-6,-4
636,0,-1
637,2,3
638,3,1
639,2,1
640,2,1
641,1,0
642,0,-1
643,0,-3
644,0,-4
645,0,-5
646,0,-5
647,0,-7
648,0,-5
649,1,-7
650,2,-4
651,2,-6
652,2,-5
653,2,-6
654,2,-5
655,2,-5
656,1,-3
657,1,-4
658,1,-4
659,2,-4
660,2,-4
661,3,-5
662,3,-4
663,3,-2
664,3,-3
665,3,-2
666,3,-4
667,3,-2
668,3,-1
669,3,-3
670,3,-3
671,4,-2
672,4,-2
673,4,-1
674,4,0
675,4,-3
676,4,0
677,6,-1
678,8,3
679,10,2
680,13,10
681,15,9
682,14,17
683,14,13
684,11,13
685,8,2
686,7,1
687,6,-1
688,5,0
689,5,-1
690,4,0
691,4,-1
692,5,-1
693,10,0
694,27,13
695,57,46
696,95,86
697,128,127
698,149,163
699,156,184
700,152,183
701,141,174
702,124,158
703,103,141
704,77,118
705,46,85
706,17,43
707,-3,2
708,-14,-20
709,-19,-33
710,-21,-37
711,-21,-38
712,-21,-36
713,-20,-38
714,-20,-37
715,-21,-37
716,-22,-35
717,-23,-37
718,-23,-35
719,-23,-36
720,-23,-37
721,-23,-37
722,-24,-37
723,-26,-37
724,-27,-39
725,-29,-40
726,-29,-41
727,-29,-40
728,-29,-42
729,-28,-38
730,-25,-38
731,-20,-28
732,-14,-21
733,-7,-9
734,-1,-3
735,3,7
736,7,11
737,9,15
738,10,14
739,10,12
740,10,8
741,8,6
742,7,3
743,6,2
744,6,1
745,5,0
746,5,0
747,5,0
748,4,-1
749,4,0
750,4,0
751,4,-1
752,4,-2
753,4,0
754,4,-1
755,3,-1
756,3,-2
757,3,-1
758,3,-3
759,3,-1
760,3,-4
761,2,-1
762,2,-4
763,2,0
764,3,-1
765,3,0
766,2,-4
767,2,-4
768,2,-6
769,2,-4
770,3,-3
771,3,-2
772,3,-3
773,3,-4
774,3,-3
775,3,-4
776,3,-1
777,4,0
778,5,3
779,7,4
780,9,10
781,10,10
782,8,11
783,6,5
784,4,0
785,2,-4
786,0,-5
787,1,-6
788,2,-6
789,1,-7
790,0,-7
791,0,-5
792,3,-3
793,21,10
794,53,41
795,90,83
796,122,125
797,142,160
798,148,178
799,143,177
800,132,167
801,114,151
802,91,132
803,64,105
804,35,74
805,8,27
806,-12,-8
807,-24,-33
808,-30,-38
809,-33,-46
810,-33,-45
811,-33,-49
812,-31,-47
813,-31,-49
814,-32,-42
815,-32,-47
816,-33,-48
817,-34,-48
818,-34,-47
819,-35,-48
820,-35,-49
821,-36,-49
822,-36,-50
823,-38,-49
824,-39,-51
825,-41,-52
826,-42,-53
827,-40,-52
828,-38,-51
829,-36,-46
830,-32,-41
831,-26,-32
832,-19,-23
833,-11,-12
834,-4,-3
835,0,0
836,1,2
837,2,2
838,1,2
839,1,0
840,2,-1
841,1,-3
842,0,-3
843,0,-6
844,0,-5
845,0,-8
846,0,-6
847,0,-6
848,0,-5
849,0,-8
850,0,-8
851,-1,-7
852,0,-7
853,0,-7
854,0,-7
855,0,-5
856,0,-8
857,0,-7
858,0,-8
859,0,-3
860,0,-8
861,0,-5
862,0,-8
863,0,-6
864,0,-8
865,0,-6
866,0,-8
867,0,-7
868,0,-8
869,0,-7
870,0,-8
871,0,-7
872,0,-7
873,0,-8
874,0,-7
875,0,-6
876,0,-6
877,0,-6
878,2,-4
879,4,-2
880,6,0
881,8,4
882,8,5
883,7,8
884,5,4
885,3,4
886,2,-1
887,0,-4
888,0,-11
889,0,-7
890,0,-10
891,0,-6
892,0,-11
893,0,-7
894,4,-6
895,23,11
896,58,43
897,95,88
898,124,130
899,142,165
900,144,177
901,137,170
902,124,157
903,105,140
904,81,121
905,56,93
906,28,63
907,2,15
908,-16,-16
909,-26,-36
910,-29,-43
911,-30,-47
912,-31,-46
913,-31,-47
914,-31,-46
915,-31,-45
916,-31,-44
917,-31,-45
918,-31,-45
919,-31,-45
920,-32,-46
921,-33,-46
922,-34,-46
923,-34,-46
924,-34,-49
925,-35,-49
926,-37,-50
927,-38,-51
928,-38,-51
929,-37,-49
930,-36,-46
931,-34,-44
932,-29,-37
933,-22,-31
934,-16,-18
935,-9,-11
936,-3,0
937,1,1
938,3,7
939,3,2
940,3,3
941,3,0
942,2,0
943,2,-4
944,1,-3
945,0,-6
946,0,-2
947,0,-6
948,0,-6
949,0,-6
950,0,-5
951,0,-7
952,0,-6
953,0,-6
954,0,-8
955,0,-7
956,0,-7
957,0,-6
958,1,-7
959,1,-6
960,0,-6
961,0,-6
962,0,-6
963,0,-7
964,0,-6
965,0,-6
966,0,-5
967,0,-7
968,0,-6
969,0,-8
970,0,-7
971,0,-9
972,1,-6
973,1,-7
974,1,-5
975,0,-5
976,0,-5
977,0,-7
978,0,-6
979,1,-5
980,2,-4
981,5,0
982,6,0
983,7,2
984,7,4
985,8,10
986,7,6
987,5,4
988,2,-3
989,0,-4
990,0,-7
991,0,-5
992,0,-9
993,0,-7
994,0,-8
995,0,-7
996,7,-4
997,28,14
998,61,49
999,97,93
1000,127,133
1001,143,165
1002,145,178
1003,136,171
1004,120,155
1005,100,137
1006,78,116
1007,51,89
1008,22,52
1009,-1,10
1010,-17,-21
1011,-27,-35
1012,-30,-44
1013,-31,-45
1014,-31,-48
1015,-31,-46
1016,-31,-48
1017,-30,-42
1018,-30,-45
1019,-30,-42
1020,-31,-46
1021,-31,-44
1022,-31,-48
1023,-32,-43
1024,-33,-47
1025,-33,-44
1026,-34,-48
1027,-34,-47
1028,-34,-48
1029,-36,-49
1030,-37,-49
1031,-37,-48
1032,-35,-45
1033,-31,-44
1034,-26,-35
1035,-21,-26
1036,-15,-15
1037,-8,-8
1038,-1,0
1039,1,1
1040,2,4
1041,3,2
1042,1,0
1043,0,-1
1044,0,-1
1045,0,-2
1046,0,-4
1047,0,-5
1048,0,-8
1049,0,-7
1050,0,-8
1051,0,-7
1052,0,-7
1053,0,-8
1054,0,-7
1055,0,-7
1056,0,-8
1057,0,-8
1058,0,-8
1059,0,-7
1060,0,-6
1061,0,-7
1062,0,-5
1063,0,-7
1064,0,-5
1065,1,-8
1066,0,-5
1067,0,-8
1068,0,-6
1069,0,-9
1070,0,-5
1071,0,-7
1072,0,-5
1073,0,-10
1074,0,-7
1075,0,-8
1076,0,-5
1077,0,-7
1078,0,-8
1079,0,-9
1080,1,-7
1081,3,-5
1082,4,-2
1083,5,0
1084,6,2
1085,7,5
1086,7,5
1087,5,4
1088,4,2
1089,1,0
1090,0,-5
1091,0,-8
1092,-1,-9
1093,-1,-10
1094,0,-8
1095,0,-10
1096,0,-8
1097,4,-4
1098,22,12
1099,54,42
1100,91,85
1101,123,123
1102,141,160
1103,144,175
1104,137,171
1105,123,158
1106,104,141
1107,80,119
1108,54,93
1109,24,59
1110,0,11
1111,-18,-18
1112,-25,-36
1113,-28,-42
1114,-30,-48
1115,-31,-44
1116,-31,-48
1117,-31,-44
1118,-31,-47
1119,-31,-45
1120,-31,-48
1121,-31,-43
1122,-31,-45
1123,-31,-44
1124,-31,-46
1125,-32,-45
1126,-32,-46
1127,-33,-48
1128,-34,-49
1129,-35,-48
1130,-35,-48
1131,-35,-49
1132,-36,-47
1133,-35,-45
1134,-31,-41
1135,-26,-36
1136,-20,-27
1137,-14,-16
1138,-8,-8
1139,-2,0
1140,1,3
1141,4,5
1142,4,3
1143,3,2
1144,3,1
1145,3,1
1146,3,-1
1147,4,0
1148,4,-2
1149,4,0
1150,4,-4
1151,4,-1
1152,4,-4
1153,4,-2
1154,4,-2
1155,4,0
1156,4,-2
1157,4,-1
1158,4,-1
1159,4,-3
1160,4,-2
1161,4,-2
1162,5,-1
1163,5,-1
1164,5,0
1165,6,-1
1166,5,0
1167,5,-1
1168,5,0
1169,5,-1
1170,5,0
1171,5,-1
1172,5,0
1173,5,-1
1174,5,-1
1175,5,0
1176,5,-1
1177,5,0
1178,5,0
1179,6,0
1180,5,0
1181,5,1
1182,7,1
1183,10,2
1184,12,6
1185,14,10
1186,17,14
1187,18,16
1188,16,15
1189,13,11
1190,10,10
1191,6,2
1192,5,0
1193,5,0
1194,5,0
1195,5,0
1196,5,0
1197,5,-1
1198,8,1
1199,25,10
1200,56,46
1201,95,83
1202,130,129
1203,151,162
1204,158,186
1205,154,186
1206,143,179
1207,127,165
1208,107,148
1209,82,126
1210,51,93
1211,22,47
1212,0,7
1213,-13,-16
1214,-20,-30
1215,-24,-35
1216,-25,-37
1217,-24,-37
1218,-23,-37
1219,-23,-38
1220,-24,-37
1221,-25,-37
1222,-25,-36
1223,-25,-37
1224,-27,-35
1225,-29,-39
1226,-29,-39
1227,-29,-41
1228,-29,-39
1229,-32,-43
1230,-35,-43
1231,-36,-47
1232,-36,-45
1233,-37,-47
1234,-36,-46
1235,-33,-44
1236,-29,-37
1237,-23,-30
1238,-17,-19
1239,-9,-8
1240,-2,-1
1241,1,4
1242,4,5
1243,5,10
1244,4,5
1245,3,4
1246,3,1
1247,3,1
1248,3,-2
1249,2,-1
1250,2,-3
1251,2,-2
1252,3,-3
1253,3,-2
1254,3,-3
1255,2,-3
1256,2,-4
1257,1,-3
1258,1,-4
1259,1,-4
1260,2,-3
1261,2,-4
1262,1,-4
1263,1,-5
1264,1,-6
1265,2,-4
1266,2,-3
1267,2,-3
1268,1,-6
1269,0,-5
1270,0,-7
1271,0,-4
1272,1,-7
1273,0,-4
1274,0,-7
1275,0,-4
1276,1,-7
1277,2,-4
1278,1,-8
1279,1,-5
