,0,1
0,0,0
1,-1,0
2,0,0
3,-3,-1
4,0,0
5,-3,-1
6,0,0
7,-1,0
8,-2,0
9,-2,-1
10,-1,0
11,-1,0
12,-1,0
13,-2,0
14,-2,0
15,-2,0
16,-2,0
17,-2,0
18,-2,-1
19,-1,0
20,-1,0
21,-1,0
22,-1,0
23,-1,0
24,-1,0
25,-2,0
26,-1,0
27,-2,0
28,-2,0
29,-2,0
30,-1,0
31,-3,0
32,-1,0
33,-1,0
34,-1,0
35,-2,0
36,-1,0
37,-2,0
38,-2,0
39,-1,0
40,-1,0
41,0,0
42,0,0
43,0,0
44,0,0
45,0,1
46,0,2
47,0,2
48,0,0
49,0,0
50,-2,0
51,-1,0
52,-2,-1
53,-2,-2
54,-3,-2
55,-1,-2
56,-1,-2
57,0,1
58,5,9
59,19,19
60,34,22
61,35,3
62,16,-28
63,-19,-56
64,-54,-73
65,-65,-75
66,-54,-63
67,-35,-40
68,-15,-17
69,-4,-4
70,0,0
71,0,2
72,0,3
73,2,5
74,2,6
75,3,6
76,2,6
77,4,7
78,4,7
79,4,8
80,4,7
81,6,8
82,5,7
83,7,8
84,6,7
85,8,10
86,7,10
87,8,11
88,9,12
89,11,13
90,11,13
91,10,14
92,10,15
93,11,16
94,11,16
95,10,15
96,10,15
97,8,14
98,8,13
99,4,11
100,3,9
101,1,7
102,0,5
103,0,3
104,0,2
105,0,0
106,0,1
107,0,1
108,0,0
109,0,0
110,0,0
111,0,0
112,0,0
113,0,0
114,-1,0
115,0,0
116,-1,0
117,0,0
118,-2,0
119,-2,0
120,-2,-1
121,-1,-1
122,-1,-1
123,-2,-1
124,-2,-1
125,-2,-1
126,-2,-1
127,-3,-1
128,-1,0
129,-3,0
130,-2,0
131,-2,-1
132,-1,0
133,-2,0
134,0,0
135,-2,-1
136,-1,0
137,-1,0
138,0,0
139,0,0
140,0,0
141,0,0
142,0,0
143,0,0
144,0,0
145,0,0
146,0,0
147,0,0
148,0,0
149,0,0
150,0,0
151,0,0
152,0,0
153,-1,-1
154,0,0
155,0,0
156,0,0
157,0,0
158,0,0
159,0,0
160,0,0
161,0,0
162,0,2
163,0,2
164,1,2
165,0,0
166,0,0
167,0,-1
168,0,-1
169,-1,-1
170,-1,-1
171,-1,-1
172,-2,-2
173,-2,-2
174,-1,0
175,2,6
176,16,16
177,33,24
178,39,13
179,27,-19
180,-2,-48
181,-43,-68
182,-65,-77
183,-59,-69
184,-41,-49
185,-20,-24
186,-7,-8
187,-1,0
188,0,1
189,0,2
190,0,3
191,1,5
192,1,6
193,1,6
194,3,7
195,3,7
196,4,7
197,4,7
198,4,7
199,4,7
200,4,7
201,5,7
202,5,7
203,6,8
204,6,9
205,8,10
206,7,10
207,9,13
208,9,13
209,12,14
210,9,13
211,11,14
212,10,14
213,9,14
214,6,13
215,7,13
216,4,9
217,4,9
218,0,6
219,0,4
220,0,3
221,0,2
222,0,1
223,0,0
224,0,0
225,0,0
226,0,0
227,0,0
228,0,0
229,0,0
230,0,0
231,0,0
232,0,0
233,-1,-1
234,-1,0
235,-2,0
236,-2,0
237,0,0
238,-1,-1
239,0,0
240,-1,-1
241,0,-1
242,-1,-1
243,0,0
244,0,-1
245,0,0
246,0,0
247,0,0
248,0,-1
249,0,-1
250,0,-1
251,0,-1
252,0,-1
253,0,-1
254,0,-1
255,0,0
256,0,0
257,0,0
258,0,0
259,0,0
260,0,0
261,0,-1
262,0,0
263,0,-1
264,0,0
265,0,-1
266,0,0
267,0,0
268,0,0
269,0,0
270,0,0
271,0,0
272,0,0
273,0,0
274,0,0
275,0,0
276,0,0
277,1,1
278,1,2
279,1,2
280,2,3
281,2,1
282,1,0
283,0,0
284,0,0
285,0,-1
286,0,0
287,0,-1
288,0,-1
289,0,-1
290,0,0
291,1,1
292,9,11
293,22,18
294,36,22
295,31,-2
296,7,-43
297,-32,-69
298,-65,-80
299,-69,-80
300,-55,-61
301,-30,-34
302,-10,-11
303,0,-1
304,0,0
305,1,1
306,1,4
307,3,6
308,3,7
309,3,7
310,2,7
311,4,8
312,4,7
313,5,8
314,5,7
315,5,8
316,6,8
317,7,8
318,7,8
319,8,9
320,8,10
321,8,10
322,10,12
323,11,13
324,13,15
325,13,15
326,15,15
327,15,16
328,14,17
329,13,16
330,11,15
331,11,14
332,8,12
333,8,11
334,4,8
335,3,6
336,0,4
337,1,3
338,0,2
339,0,1
340,0,0
341,0,0
342,0,0
343,0,0
344,0,0
345,0,0
346,0,0
347,0,0
348,0,0
349,0,0
350,0,0
351,-1,-1
352,-1,-1
353,-1,-1
354,-2,-1
355,-2,-1
356,-1,-1
357,-1,-1
358,-1,-1
359,-2,-1
360,-1,-1
361,-1,-1
362,0,-1
363,0,-1
364,-1,-1
365,0,0
366,-1,-1
367,0,0
368,0,-1
369,0,0
370,0,0
371,0,0
372,0,-1
373,0,-1
374,0,0
375,0,0
376,0,-1
377,0,-1
378,0,-1
379,0,-1
380,0,-1
381,0,0
382,0,0
383,0,0
384,0,0
385,0,0
386,0,0
387,0,0
388,0,0
389,0,0
390,0,0
391,0,0
392,1,1
393,0,2
394,0,2
395,0,0
396,0,0
397,-1,0
398,-2,0
399,-2,0
400,0,-1
401,0,-1
402,-1,-1
403,-1,-1
404,0,-1
405,1,2
406,8,11
407,21,19
408,31,16
409,24,-7
410,-2,-46
411,-41,-74
412,-70,-86
413,-71,-81
414,-52,-58
415,-27,-29
416,-8,-8
417,-1,0
418,0,2
419,0,2
420,2,5
421,2,5
422,3,7
423,3,7
424,5,8
425,6,8
426,6,8
427,6,8
428,6,10
429,7,9
430,7,10
431,8,11
432,8,11
433,9,11
434,10,12
435,10,13
436,11,13
437,14,14
438,14,15
439,15,17
440,13,18
441,15,20
442,13,19
443,12,18
444,11,16
445,11,15
446,8,13
447,7,13
448,5,10
449,3,7
450,2,6
451,1,4
452,1,3
453,0,2
454,0,2
455,0,1
456,0,1
457,0,0
458,0,0
459,0,0
460,0,0
461,0,0
462,0,0
463,0,0
464,0,0
465,0,0
466,0,0
467,0,0
468,0,0
469,0,0
470,0,0
471,0,0
472,-1,0
473,0,0
474,0,0
475,0,0
476,0,0
477,0,0
478,0,0
479,0,0
480,0,0
481,0,0
482,0,0
483,0,0
484,-1,0
485,-1,0
486,0,0
487,0,0
488,0,0
489,0,0
490,0,0
491,0,0
492,-1,0
493,0,0
494,0,0
495,0,0
496,-1,0
497,0,0
498,0,0
499,0,0
500,0,0
501,0,0
502,0,0
503,0,0
504,0,0
505,0,0
506,0,0
507,0,0
508,0,0
509,0,2
510,0,2
511,0,3
512,3,4
513,0,2
514,0,0
515,0,0
516,0,0
517,-1,0
518,0,0
519,0,0
520,0,0
521,-1,-1
522,0,0
523,0,1
524,7,10
525,20,20
526,35,23
527,33,1
528,12,-32
529,-26,-62
530,-59,-77
531,-66,-77
532,-52,-61
533,-30,-36
534,-11,-14
535,-1,-2
536,0,0
537,0,2
538,2,4
539,3,5
540,4,7
541,4,7
542,5,7
543,5,7
544,7,9
545,6,7
546,7,9
547,6,7
548,8,10
549,7,9
550,10,11
551,8,11
552,10,13
553,10,13
554,11,13
555,11,13
556,12,14
557,13,15
558,14,16
559,14,17
560,14,18
561,14,18
562,12,15
563,11,15
564,9,14
565,8,12
566,5,9
567,4,8
568,1,5
569,1,4
570,0,2
571,0,2
572,0,1
573,0,1
574,0,0
575,0,0
576,0,0
577,0,0
578,0,0
579,0,0
580,0,0
581,0,0
582,0,0
583,0,0
584,0,0
585,0,0
586,0,0
587,0,0
588,0,0
589,0,0
590,-1,0
591,-1,0
592,-1,0
593,0,0
594,-1,0
595,0,0
596,-1,0
597,0,0
598,-1,0
599,0,0
600,-1,0
601,0,0
602,0,0
603,0,0
604,0,0
605,-1,0
606,-1,0
607,-1,0
608,-1,0
609,-1,0
610,-1,0
611,-1,0
612,0,0
613,0,0
614,0,0
615,0,0
616,0,0
617,-1,0
618,0,0
619,0,0
620,-1,0
621,0,0
622,0,0
623,0,0
624,-1,0
625,0,0
626,0,0
627,0,0
628,0,0
629,0,1
630,0,2
631,0,2
632,0,2
633,1,5
634,0,4
635,0,1
636,0,0
637,0,0
638,-1,0
639,-1,0
640,-2,-1
641,-2,0
642,0,0
643,-1,0
644,0,1
645,3,8
646,19,21
647,33,25
648,40,10
649,23,-24
650,-9,-50
651,-49,-70
652,-64,-76
653,-56,-65
654,-36,-42
655,-16,-20
656,-3,-4
657,0,0
658,0,2
659,1,4
660,1,6
661,2,7
662,3,7
663,4,8
664,4,8
665,4,8
666,4,9
667,4,9
668,5,8
669,4,8
670,5,9
671,4,8
672,6,9
673,5,9
674,7,12
675,7,12
676,9,13
677,8,13
678,11,15
679,11,15
680,12,16
681,11,16
682,11,16
683,11,15
684,11,15
685,8,14
686,7,13
687,5,11
688,3,9
689,1,5
690,0,2
691,0,2
692,0,2
693,0,1
694,0,0
695,0,0
696,0,0
697,0,0
698,0,0
699,0,0
700,0,0
701,0,0
702,0,0
703,0,0
704,0,0
705,0,0
706,0,0
707,0,0
708,0,0
709,-1,0
710,-1,0
711,-1,0
712,-1,0
713,-1,0
714,-1,0
715,-1,0
716,0,0
717,0,0
718,-1,0
719,0,0
720,0,0
721,0,0
722,0,0
723,0,0
724,0,0
725,0,0
726,-1,0
727,0,0
728,0,0
729,0,0
730,0,0
731,0,0
732,0,0
733,0,0
734,0,0
735,0,0
736,0,0
737,0,0
738,0,0
739,0,0
740,0,0
741,0,0
742,0,0
743,0,0
744,0,0
745,0,0
746,0,0
747,0,0
748,0,0
749,0,0
750,0,0
751,0,2
752,0,2
753,1,3
754,1,4
755,2,5
756,0,1
757,0,0
758,0,0
759,0,0
760,0,0
761,0,0
762,-1,-1
763,-1,-1
764,0,0
765,0,0
766,3,8
767,17,19
768,36,26
769,41,10
770,24,-30
771,-10,-56
772,-50,-72
773,-66,-77
774,-57,-66
775,-38,-44
776,-17,-18
777,-5,-5
778,0,0
779,0,1
780,0,5
781,0,5
782,2,6
783,1,7
784,2,7
785,3,7
786,4,8
787,3,7
788,4,8
789,5,8
790,5,8
791,6,8
792,6,8
793,6,9
794,8,10
795,8,11
796,9,13
797,10,13
798,11,14
799,11,14
800,13,15
801,12,15
802,14,16
803,12,15
804,12,14
805,10,13
806,10,14
807,7,9
808,6,8
809,4,6
810,3,5
811,1,3
812,2,2
813,1,0
814,1,0
815,1,0
816,0,0
817,0,0
818,0,0
819,0,0
820,0,0
821,0,0
822,0,0
823,0,0
824,0,-1
825,0,0
826,0,-1
827,0,0
828,0,-1
829,0,0
830,0,-1
831,0,0
832,0,-1
833,0,-1
834,0,-1
835,0,-1
836,0,-1
837,0,-1
838,0,0
839,0,0
840,0,0
841,0,-1
842,0,0
843,0,0
844,0,0
845,0,0
846,0,0
847,0,0
848,0,0
849,0,0
850,0,0
851,0,0
852,0,0
853,0,0
854,0,0
855,0,0
856,0,0
857,0,0
858,0,0
859,0,0
860,0,0
861,0,0
862,0,0
863,0,0
864,0,0
865,0,0
866,0,0
867,0,0
868,0,0
869,0,0
870,0,0
871,0,0
872,0,0
873,0,1
874,0,2
875,0,2
876,1,3
877,1,2
878,0,0
879,0,0
880,0,0
881,0,0
882,0,0
883,0,0
884,0,-1
885,0,0
886,0,0
887,0,0
888,4,6
889,18,17
890,30,19
891,34,6
892,12,-34
893,-20,-64
894,-60,-84
895,-74,-83
896,-63,-70
897,-38,-41
898,-15,-16
899,-3,-2
900,0,1
901,0,2
902,3,6
903,2,7
904,4,8
905,4,7
906,4,10
907,4,8
908,6,10
909,4,9
910,5,10
911,5,9
912,6,10
913,6,10
914,7,11
915,7,11
916,8,12
917,10,13
918,10,13
919,11,15
920,12,15
921,13,16
922,14,17
923,15,18
924,15,19
925,15,18
926,14,17
927,12,15
928,11,14
929,9,12
930,7,10
931,4,7
932,3,6
933,0,2
934,1,1
935,0,0
936,1,1
937,0,0
938,0,0
939,0,0
940,0,0
941,0,0
942,0,0
943,0,0
944,0,0
945,0,0
946,0,0
947,0,0
948,0,-1
949,-1,-1
950,-1,-1
951,-1,-1
952,-2,-1
953,-2,-1
954,-2,-1
955,-1,-1
956,-2,-1
957,-1,-1
958,-2,-1
959,-1,-1
960,-2,-1
961,-3,0
962,-2,0
963,-2,-1
964,-1,0
965,-1,0
966,-1,0
967,-1,0
968,-1,0
969,-1,0
970,-1,0
971,-2,0
972,-1,0
973,-1,0
974,0,0
975,0,0
976,0,0
977,0,0
978,0,0
979,0,0
980,0,0
981,0,0
982,0,0
983,0,0
984,-1,0
985,0,0
986,0,0
987,0,0
988,0,0
989,0,0
990,0,0
991,0,1
992,0,1
993,0,3
994,1,3
995,1,2
996,0,1
997,0,0
998,0,0
999,-1,0
1000,-1,-1
1001,-1,-1
1002,-1,0
1003,-1,0
1004,-1,0
1005,0,0
1006,2,5
1007,11,14
1008,25,21
1009,33,15
1010,22,-14
1011,-6,-51
1012,-46,-75
1013,-71,-84
1014,-69,-75
1015,-45,-50
1016,-23,-24
1017,-6,-5
1018,0,0
1019,0,3
1020,0,3
1021,1,6
1022,1,7
1023,3,7
1024,3,8
1025,3,8
1026,4,8
1027,5,9
1028,6,10
1029,5,9
1030,6,10
1031,6,11
1032,8,12
1033,7,11
1034,10,12
1035,9,13
1036,11,14
1037,11,15
1038,12,16
1039,12,15
1040,13,18
1041,14,19
1042,14,20
1043,14,19
1044,14,20
1045,12,17
1046,10,14
1047,8,13
1048,6,10
1049,4,8
1050,3,6
1051,2,5
1052,1,3
1053,0,1
1054,0,0
1055,0,0
1056,0,1
1057,0,0
1058,0,0
1059,0,0
1060,0,0
1061,0,0
1062,0,0
1063,0,0
1064,0,0
1065,0,0
1066,0,0
1067,0,0
1068,0,0
1069,0,0
1070,0,0
1071,0,0
1072,0,0
1073,0,0
1074,-1,-1
1075,-1,-1
1076,-1,-1
1077,-1,-1
1078,-1,-2
1079,-1,-1
1080,-1,-1
1081,0,0
1082,-1,-1
1083,0,0
1084,0,0
1085,0,0
1086,-1,-1
1087,0,0
1088,-1,-1
1089,-1,-1
1090,-1,0
1091,-1,-1
1092,0,-1
1093,-1,-1
1094,0,0
1095,-1,-1
1096,0,-1
1097,-1,0
1098,-1,0
1099,-2,0
1100,-1,0
1101,-1,0
1102,-1,0
1103,-1,0
1104,-1,0
1105,-1,0
1106,-1,0
1107,0,0
1108,-1,0
1109,0,0
1110,-1,0
1111,0,0
1112,0,0
1113,0,1
1114,0,0
1115,0,1
1116,0,2
1117,1,3
1118,0,1
1119,0,0
1120,0,0
1121,0,0
1122,0,0
1123,-1,0
1124,-1,0
1125,-1,0
1126,-1,0
1127,-2,0
1128,0,2
1129,5,9
1130,20,20
1131,34,23
1132,35,4
1133,16,-29
1134,-18,-58
1135,-54,-74
1136,-65,-75
1137,-55,-61
1138,-35,-37
1139,-14,-14
1140,-4,-1
1141,0,1
1142,0,3
1143,0,7
1144,0,7
1145,1,8
1146,0,8
1147,3,9
1148,3,8
1149,4,11
1150,4,11
1151,4,11
1152,4,11
1153,4,11
1154,5,10
1155,6,10
1156,6,11
1157,7,12
1158,8,12
1159,8,13
1160,10,14
1161,9,15
1162,12,16
1163,11,17
1164,13,19
1165,12,16
1166,13,16
1167,12,15
1168,11,15
1169,9,13
1170,8,13
1171,5,10
1172,3,7
1173,1,5
1174,0,3
1175,0,2
1176,0,2
1177,0,1
1178,0,0
1179,0,0
1180,0,0
1181,0,0
1182,0,0
1183,0,0
1184,0,0
1185,0,0
1186,0,0
1187,0,0
1188,0,0
1189,0,0
1190,0,0
1191,0,0
1192,0,0
1193,0,-1
1194,0,0
1195,0,-1
1196,0,0
1197,-1,0
1198,0,0
1199,-1,0
1200,0,0
1201,0,0
1202,0,0
1203,0,0
1204,0,-1
1205,0,-1
1206,0,0
1207,0,0
1208,-1,-1
1209,0,0
1210,0,0
1211,0,0
1212,0,0
1213,0,0
1214,0,0
1215,0,0
1216,0,0
1217,0,0
1218,0,0
1219,0,0
1220,0,0
1221,0,0
1222,0,0
1223,0,0
1224,0,0
1225,0,0
1226,0,0
1227,0,0
1228,0,0
1229,0,0
1230,0,0
1231,0,0
1232,0,0
1233,0,0
1234,0,0
1235,0,2
1236,0,3
1237,2,3
1238,0,0
1239,0,0
1240,0,0
1241,0,0
1242,-1,-1
1243,0,-1
1244,-2,-1
1245,0,-1
1246,-1,-1
1247,0,0
1248,0,3
1249,11,14
1250,27,23
1251,40,18
1252,33,-10
1253,8,-40
1254,-31,-63
1255,-58,-73
1256,-60,-69
1257,-45,-53
1258,-25,-29
1259,-9,-10
1260,-2,0
1261,0,2
1262,0,4
1263,0,6
1264,1,7
1265,2,7
1266,2,7
1267,4,9
1268,3,8
1269,5,9
1270,4,7
1271,5,10
1272,5,9
1273,5,10
1274,5,9
1275,7,11
1276,6,10
1277,7,12
1278,7,12
1279,9,13
