,0,1
0,0,0
1,0,0
2,0,0
3,0,0
4,0,0
5,2,0
6,3,0
7,6,0
8,9,1
9,7,2
10,2,2
11,0,2
12,0,1
13,0,1
14,0,2
15,0,1
16,0,0
17,-1,0
18,-1,0
19,-2,0
20,-1,0
21,-2,0
22,-2,0
23,1,0
24,10,0
25,15,1
26,20,14
27,36,43
28,47,63
29,41,41
30,33,-6
31,51,-19
32,81,-21
33,114,-28
34,138,-38
35,150,-52
36,153,-58
37,126,-51
38,42,-29
39,-1,-9
40,-11,0
41,-20,0
42,-20,1
43,-23,1
44,-24,1
45,-24,2
46,-24,2
47,-24,2
48,-24,2
49,-24,2
50,-23,2
51,-23,2
52,-23,2
53,-23,2
54,-22,2
55,-22,2
56,-22,2
57,-23,2
58,-24,2
59,-22,2
60,-22,2
61,-23,3
62,-21,3
63,-22,3
64,-23,3
65,-23,3
66,-23,3
67,-23,3
68,-23,2
69,-22,2
70,-23,2
71,-25,2
72,-24,2
73,-26,2
74,-26,1
75,-29,0
76,-29,0
77,-33,0
78,-37,0
79,-40,-1
80,-38,-1
81,-35,-2
82,-41,-5
83,-38,-5
84,-35,-6
85,-36,-6
86,-32,-6
87,-29,-6
88,-26,-7
89,-24,-7
90,-21,-7
91,-12,-6
92,-8,-6
93,-3,-5
94,0,-3
95,0,-1
96,3,-1
97,6,0
98,8,0
99,9,0
100,8,1
101,9,2
102,10,2
103,9,2
104,9,3
105,10,3
106,9,3
107,9,3
108,8,4
109,8,3
110,8,3
111,7,2
112,5,2
113,5,2
114,6,2
115,5,2
116,4,2
117,4,2
118,4,2
119,3,2
120,2,2
121,2,2
122,3,2
123,3,1
124,0,1
125,1,1
126,1,0
127,1,0
128,1,1
129,1,1
130,0,1
131,0,1
132,0,0
133,0,0
134,0,1
135,0,1
136,-1,0
137,-1,0
138,-1,0
139,0,0
140,-1,0
141,-2,0
142,-2,0
143,-2,0
144,-2,0
145,-2,0
146,-2,0
147,-3,0
148,-3,0
149,-3,0
150,-3,0
151,-2,0
152,-2,0
153,-2,0
154,-2,0
155,-2,0
156,-3,0
157,-3,0
158,-3,0
159,-3,0
160,-3,0
161,-3,1
162,-3,1
163,-3,0
164,-3,0
165,-3,0
166,-6,0
167,-5,0
168,-3,0
169,-4,0
170,-4,0
171,-4,0
172,-4,0
173,-4,0
174,-4,0
175,-4,0
176,0,0
177,0,0
178,0,1
179,1,2
180,0,2
181,-4,2
182,-3,2
183,-3,2
184,-1,2
185,-2,2
186,-1,2
187,0,0
188,-1,0
189,-3,0
190,-1,0
191,-1,0
192,-3,0
193,0,0
194,8,0
195,14,0
196,14,10
197,22,36
198,31,60
199,28,46
200,25,0
201,40,-20
202,70,-22
203,99,-28
204,128,-38
205,140,-52
206,144,-60
207,130,-55
208,54,-34
209,1,-12
210,-13,0
211,-23,0
212,-25,2
213,-26,3
214,-28,3
215,-29,3
216,-29,3
217,-29,3
218,-29,4
219,-29,4
220,-27,4
221,-28,4
222,-29,4
223,-27,4
224,-27,4
225,-26,4
226,-28,3
227,-26,3
228,-25,3
229,-26,3
230,-27,4
231,-27,4
232,-25,4
233,-24,4
234,-24,4
235,-24,4
236,-24,4
237,-27,4
238,-28,4
239,-27,4
240,-27,3
241,-26,2
242,-26,2
243,-26,2
244,-27,1
245,-27,0
246,-29,0
247,-33,0
248,-33,0
249,-33,0
250,-38,-1
251,-37,-2
252,-38,-5
253,-37,-6
254,-36,-7
255,-32,-9
256,-31,-10
257,-31,-10
258,-27,-10
259,-23,-10
260,-22,-10
261,-16,-10
262,-12,-10
263,-8,-8
264,-4,-6
265,0,-6
266,1,-3
267,3,-1
268,4,0
269,5,0
270,8,0
271,10,1
272,11,2
273,11,2
274,11,4
275,11,5
276,11,6
277,10,6
278,9,6
279,8,5
280,8,5
281,8,5
282,8,4
283,7,3
284,7,2
285,8,3
286,8,2
287,7,2
288,6,1
289,5,1
290,7,2
291,7,2
292,6,1
293,6,0
294,8,0
295,7,1
296,5,0
297,8,0
298,7,0
299,4,0
300,6,0
301,7,0
302,7,0
303,6,0
304,7,0
305,6,0
306,6,0
307,5,0
308,5,0
309,4,0
310,6,0
311,5,0
312,5,0
313,5,0
314,6,0
315,7,0
316,6,0
317,6,0
318,6,0
319,6,0
320,7,0
321,6,0
322,6,0
323,8,0
324,7,0
325,6,0
326,8,0
327,8,0
328,7,0
329,7,0
330,7,0
331,7,0
332,7,0
333,7,0
334,8,0
335,7,0
336,6,0
337,6,0
338,7,0
339,6,0
340,4,0
341,4,0
342,4,0
343,3,0
344,4,0
345,3,0
346,3,0
347,5,0
348,7,0
349,9,0
350,13,1
351,14,2
352,8,2
353,3,1
354,3,0
355,3,0
356,4,1
357,2,1
358,0,0
359,0,0
360,0,0
361,0,0
362,0,0
363,1,0
364,2,0
365,7,0
366,17,0
367,22,3
368,29,20
369,41,49
370,47,58
371,40,24
372,40,-15
373,66,-21
374,96,-25
375,123,-34
376,145,-45
377,155,-58
378,155,-60
379,102,-47
380,26,-23
381,-1,-6
382,-8,0
383,-18,0
384,-21,0
385,-21,0
386,-20,1
387,-21,2
388,-20,2
389,-21,2
390,-20,2
391,-20,2
392,-21,2
393,-20,2
394,-20,2
395,-20,2
396,-20,2
397,-20,2
398,-20,2
399,-21,2
400,-20,2
401,-18,2
402,-16,2
403,-16,2
404,-17,2
405,-18,2
406,-18,2
407,-20,2
408,-20,2
409,-20,2
410,-21,2
411,-20,2
412,-20,2
413,-21,2
414,-24,1
415,-25,0
416,-25,0
417,-27,0
418,-31,0
419,-31,0
420,-32,0
421,-33,-1
422,-35,-2
423,-35,-3
424,-32,-5
425,-33,-6
426,-32,-6
427,-31,-6
428,-27,-7
429,-27,-7
430,-24,-8
431,-21,-9
432,-13,-7
433,-10,-7
434,-3,-6
435,0,-6
436,0,-4
437,3,-1
438,5,-1
439,5,0
440,8,0
441,10,0
442,10,0
443,11,1
444,15,2
445,18,3
446,15,3
447,11,3
448,11,3
449,11,4
450,10,3
451,9,2
452,8,2
453,8,2
454,8,2
455,6,2
456,4,1
457,5,1
458,7,2
459,5,1
460,4,0
461,4,0
462,6,0
463,6,0
464,5,0
465,5,0
466,7,0
467,3,0
468,3,0
469,3,0
470,3,0
471,4,0
472,3,0
473,1,0
474,2,0
475,2,0
476,2,0
477,2,0
478,3,0
479,0,0
480,0,0
481,1,0
482,0,0
483,2,0
484,2,0
485,0,0
486,0,0
487,0,0
488,0,0
489,0,0
490,0,0
491,0,0
492,0,0
493,0,0
494,0,0
495,0,0
496,1,0
497,0,0
498,0,0
499,0,0
500,0,0
501,0,0
502,0,0
503,1,0
504,0,0
505,0,0
506,0,0
507,0,0
508,0,0
509,0,0
510,0,0
511,0,0
512,0,0
513,0,0
514,0,0
515,0,0
516,1,0
517,2,0
518,3,0
519,7,1
520,8,2
521,2,2
522,0,2
523,-1,2
524,-2,1
525,0,1
526,0,1
527,0,0
528,-1,0
529,-2,0
530,-3,0
531,-3,0
532,-3,0
533,-5,0
534,-3,0
535,5,0
536,12,0
537,15,11
538,28,39
539,40,62
540,37,45
541,33,-2
542,51,-19
543,77,-20
544,103,-28
545,131,-37
546,148,-51
547,147,-58
548,127,-54
549,47,-32
550,-3,-11
551,-15,0
552,-23,0
553,-24,1
554,-27,2
555,-28,2
556,-29,2
557,-29,2
558,-27,2
559,-28,2
560,-29,2
561,-27,2
562,-27,2
563,-23,2
564,-24,2
565,-28,2
566,-27,2
567,-26,2
568,-23,2
569,-23,2
570,-24,2
571,-24,3
572,-23,4
573,-24,3
574,-24,3
575,-24,4
576,-24,3
577,-24,3
578,-24,3
579,-24,3
580,-24,3
581,-24,2
582,-24,2
583,-25,2
584,-29,2
585,-29,1
586,-31,0
587,-33,0
588,-32,0
589,-32,0
590,-37,0
591,-41,-1
592,-41,-1
593,-41,-3
594,-41,-3
595,-40,-6
596,-30,-6
597,-29,-6
598,-29,-6
599,-24,-7
600,-21,-7
601,-20,-6
602,-14,-6
603,-8,-5
604,-3,-3
605,0,-2
606,0,-1
607,4,0
608,6,0
609,6,0
610,8,0
611,10,1
612,11,2
613,15,2
614,17,3
615,17,4
616,15,4
617,12,4
618,12,4
619,11,4
620,9,3
621,7,3
622,5,3
623,4,2
624,4,2
625,3,2
626,4,1
627,4,1
628,4,2
629,4,1
630,3,0
631,2,0
632,4,1
633,3,1
634,1,0
635,0,0
636,0,0
637,1,0
638,1,0
639,1,0
640,0,0
641,0,0
642,1,0
643,1,0
644,0,0
645,0,0
646,0,0
647,0,0
648,1,0
649,2,0
650,1,0
651,1,0
652,0,0
653,-1,0
654,0,0
655,1,0
656,0,0
657,0,0
658,0,0
659,0,0
660,0,0
661,1,0
662,2,0
663,1,0
664,0,0
665,0,0
666,0,0
667,0,0
668,0,0
669,0,0
670,0,0
671,0,0
672,-1,0
673,0,0
674,0,0
675,0,0
676,0,0
677,-1,0
678,0,0
679,0,0
680,0,0
681,0,0
682,0,0
683,0,0
684,0,0
685,1,0
686,3,0
687,7,0
688,8,1
689,5,2
690,0,2
691,0,2
692,-1,1
693,-1,1
694,-1,2
695,0,1
696,-2,0
697,-3,0
698,-3,0
699,-4,0
700,-3,0
701,-4,0
702,-3,0
703,5,0
704,13,0
705,16,7
706,28,29
707,42,57
708,43,54
709,35,13
710,40,-17
711,68,-20
712,99,-24
713,127,-34
714,144,-47
715,150,-57
716,142,-57
717,75,-39
718,9,-17
719,-12,-4
720,-21,0
721,-24,1
722,-26,2
723,-27,2
724,-27,2
725,-28,2
726,-27,2
727,-24,2
728,-24,2
729,-24,2
730,-25,2
731,-24,2
732,-24,2
733,-25,2
734,-24,2
735,-23,2
736,-23,2
737,-24,2
738,-23,2
739,-23,2
740,-22,2
741,-22,2
742,-24,3
743,-24,3
744,-24,4
745,-23,4
746,-23,2
747,-24,2
748,-23,4
749,-23,4
750,-23,3
751,-25,2
752,-27,2
753,-29,2
754,-30,1
755,-33,0
756,-34,0
757,-38,0
758,-39,0
759,-34,0
760,-33,-1
761,-33,-2
762,-33,-3
763,-32,-5
764,-31,-6
765,-30,-6
766,-27,-7
767,-26,-8
768,-23,-8
769,-21,-7
770,-18,-6
771,-8,-6
772,-6,-6
773,-4,-3
774,-2,-2
775,0,-1
776,2,0
777,6,0
778,7,0
779,7,1
780,10,2
781,11,3
782,12,4
783,10,5
784,10,6
785,10,6
786,8,5
787,8,5
788,6,5
789,5,4
790,6,4
791,7,4
792,6,3
793,5,2
794,5,2
795,4,2
796,4,2
797,4,2
798,4,2
799,3,2
800,3,2
801,2,2
802,1,2
803,0,2
804,2,2
805,2,2
806,3,2
807,2,2
808,1,1
809,0,1
810,1,1
811,1,1
812,1,2
813,1,2
814,0,1
815,0,1
816,0,1
817,0,0
818,0,0
819,0,1
820,0,1
821,-1,1
822,0,1
823,0,1
824,0,1
825,0,0
826,0,0
827,0,0
828,0,0
829,0,0
830,0,0
831,0,0
832,0,1
833,0,0
834,0,0
835,0,1
836,0,0
837,0,0
838,0,0
839,0,0
840,0,0
841,0,0
842,0,0
843,0,0
844,1,0
845,0,0
846,0,0
847,0,0
848,0,0
849,0,0
850,0,0
851,0,0
852,0,0
853,1,0
854,3,1
855,4,2
856,6,2
857,5,2
858,0,2
859,-1,2
860,0,2
861,0,2
862,0,2
863,0,2
864,0,0
865,0,0
866,-1,0
867,0,0
868,0,0
869,-1,0
870,0,0
871,9,0
872,16,0
873,19,8
874,30,34
875,40,60
876,34,47
877,27,2
878,42,-20
879,71,-21
880,100,-28
881,126,-39
882,142,-53
883,147,-60
884,132,-54
885,62,-35
886,8,-14
887,-13,-1
888,-21,0
889,-24,2
890,-26,2
891,-25,3
892,-25,4
893,-26,4
894,-28,4
895,-24,4
896,-25,4
897,-24,4
898,-24,2
899,-25,3
900,-24,4
901,-23,4
902,-25,4
903,-25,4
904,-25,4
905,-25,3
906,-24,3
907,-24,4
908,-24,4
909,-24,4
910,-25,3
911,-24,3
912,-23,4
913,-23,4
914,-23,4
915,-23,4
916,-22,4
917,-23,2
918,-25,2
919,-26,1
920,-26,1
921,-24,1
922,-24,0
923,-27,0
924,-29,0
925,-29,0
926,-32,-1
927,-32,-1
928,-33,-3
929,-33,-5
930,-32,-6
931,-31,-7
932,-28,-8
933,-27,-10
934,-28,-10
935,-23,-10
936,-22,-10
937,-15,-10
938,-11,-9
939,-6,-9
940,-3,-8
941,0,-6
942,2,-5
943,3,-4
944,4,-1
945,10,0
946,11,0
947,16,0
948,20,1
949,21,2
950,21,2
951,21,3
952,21,3
953,21,4
954,21,4
955,18,4
956,15,3
957,14,3
958,15,3
959,14,2
960,13,2
961,14,2
962,13,2
963,11,1
964,10,1
965,11,0
966,11,0
967,11,0
968,10,0
969,10,0
970,10,0
971,8,0
972,8,0
973,9,0
974,10,0
975,7,0
976,7,0
977,8,0
978,9,0
979,6,0
980,5,0
981,5,0
982,5,0
983,2,0
984,3,0
985,4,0
986,3,0
987,4,0
988,5,0
989,3,0
990,3,0
991,4,0
992,3,0
993,4,0
994,3,0
995,3,0
996,3,0
997,3,0
998,3,0
999,3,0
1000,2,0
1001,3,0
1002,3,0
1003,2,0
1004,2,0
1005,2,0
1006,2,0
1007,2,0
1008,3,0
1009,2,0
1010,1,0
1011,2,0
1012,2,0
1013,2,0
1014,1,0
1015,1,0
1016,2,0
1017,1,0
1018,0,0
1019,1,0
1020,2,0
1021,1,0
1022,4,0
1023,4,0
1024,8,0
1025,8,0
1026,10,1
1027,10,2
1028,5,2
1029,2,1
1030,0,0
1031,0,0
1032,1,1
1033,1,0
1034,0,0
1035,0,0
1036,0,0
1037,0,0
1038,0,0
1039,0,0
1040,0,0
1041,9,0
1042,17,0
1043,21,6
1044,30,29
1045,43,56
1046,42,52
1047,34,11
1048,44,-18
1049,71,-21
1050,100,-26
1051,128,-35
1052,147,-47
1053,155,-58
1054,143,-57
1055,79,-40
1056,15,-19
1057,-4,-3
1058,-11,0
1059,-15,0
1060,-20,0
1061,-24,1
1062,-24,2
1063,-24,2
1064,-23,2
1065,-23,2
1066,-23,2
1067,-23,2
1068,-23,2
1069,-20,2
1070,-20,2
1071,-21,2
1072,-21,2
1073,-21,2
1074,-20,2
1075,-20,2
1076,-20,2
1077,-20,2
1078,-20,2
1079,-20,2
1080,-18,2
1081,-19,2
1082,-20,2
1083,-22,2
1084,-21,2
1085,-20,2
1086,-21,2
1087,-22,2
1088,-23,2
1089,-23,2
1090,-23,1
1091,-25,0
1092,-26,0
1093,-27,0
1094,-31,0
1095,-32,0
1096,-32,-1
1097,-35,-1
1098,-39,-3
1099,-36,-4
1100,-40,-5
1101,-36,-6
1102,-34,-6
1103,-31,-8
1104,-28,-8
1105,-25,-9
1106,-24,-8
1107,-22,-7
1108,-12,-6
1109,-5,-6
1110,-4,-6
1111,0,-5
1112,3,-2
1113,3,-1
1114,8,0
1115,5,0
1116,7,0
1117,11,0
1118,12,1
1119,12,2
1120,15,2
1121,14,2
1122,12,3
1123,10,3
1124,9,3
1125,9,2
1126,8,2
1127,8,2
1128,8,2
1129,8,2
1130,8,2
1131,7,2
1132,5,2
1133,5,1
1134,6,1
1135,5,1
1136,4,1
1137,5,1
1138,6,1
1139,4,0
1140,4,0
1141,4,0
1142,3,0
1143,4,0
1144,3,0
1145,2,0
1146,4,0
1147,3,0
1148,3,0
1149,3,0
1150,3,0
1151,3,0
1152,3,0
1153,2,0
1154,2,0
1155,2,0
1156,3,0
1157,4,0
1158,2,0
1159,3,0
1160,3,0
1161,1,0
1162,1,0
1163,2,0
1164,3,0
1165,4,0
1166,1,0
1167,0,0
1168,0,0
1169,1,0
1170,0,0
1171,0,0
1172,0,0
1173,0,0
1174,0,0
1175,0,0
1176,0,0
1177,0,0
1178,0,0
1179,0,0
1180,0,0
1181,0,0
1182,0,0
1183,0,0
1184,0,0
1185,0,0
1186,0,0
1187,0,0
1188,0,0
1189,1,0
1190,0,0
1191,0,0
1192,0,0
1193,3,0
1194,6,0
1195,11,1
1196,10,2
1197,6,2
1198,1,2
1199,0,2
1200,0,2
1201,0,2
1202,0,2
1203,-1,0
1204,0,0
1205,-2,0
1206,-1,0
1207,-1,0
1208,-1,0
1209,-2,0
1210,0,0
1211,8,0
1212,13,0
1213,19,12
1214,34,39
1215,46,62
1216,41,42
1217,34,0
1218,49,-18
1219,78,-21
1220,108,-27
1221,135,-38
1222,149,-51
1223,150,-58
1224,128,-52
1225,54,-32
1226,2,-11
1227,-10,-1
1228,-17,0
1229,-21,0
1230,-24,2
1231,-24,2
1232,-24,2
1233,-24,2
1234,-25,2
1235,-25,2
1236,-23,2
1237,-22,2
1238,-23,2
1239,-24,2
1240,-22,2
1241,-23,2
1242,-24,2
1243,-24,2
1244,-23,2
1245,-23,2
1246,-22,2
1247,-23,2
1248,-21,2
1249,-21,2
1250,-23,2
1251,-24,2
1252,-22,2
1253,-23,3
1254,-23,2
1255,-23,2
1256,-23,2
1257,-23,2
1258,-24,2
1259,-24,2
1260,-26,2
1261,-27,2
1262,-30,1
1263,-33,0
1264,-33,0
1265,-33,0
1266,-36,0
1267,-40,-1
1268,-39,-2
1269,-41,-5
1270,-41,-6
1271,-39,-6
1272,-34,-6
1273,-32,-7
1274,-29,-7
1275,-28,-7
1276,-23,-8
1277,-22,-7
1278,-13,-6
1279,-9,-5
