,0,1
0,-119,-101
1,-117,-103
2,-117,-107
3,-115,-109
4,-111,-105
5,-117,-105
6,-119,-111
7,-119,-111
8,-123,-105
9,-121,-103
10,-123,-103
11,-119,-99
12,-123,-103
13,-129,-101
14,-133,-107
15,-123,-107
16,-119,-107
17,-131,-103
18,-125,-113
19,-129,-105
20,-129,-105
21,-125,-107
22,-113,-97
23,-135,-109
24,-129,-109
25,-125,-107
26,-133,-109
27,-133,-115
28,-123,-109
29,-129,-113
30,-137,-115
31,-139,-111
32,-141,-107
33,-139,-117
34,-139,-117
35,-141,-121
36,-143,-117
37,-139,-123
38,-133,-123
39,-137,-121
40,-135,-125
41,-139,-127
42,-135,-125
43,-123,-121
44,-137,-131
45,-141,-133
46,-127,-125
47,-131,-125
48,-129,-133
49,-127,-129
50,-113,-123
51,-107,-103
52,-105,-105
53,-89,-105
54,-67,-97
55,-73,-101
56,-71,-111
57,-79,-123
58,-91,-135
59,-105,-133
60,-113,-137
61,-117,-147
62,-113,-149
63,-109,-141
64,-109,-133
65,-91,-115
66,-41,-133
67,83,-163
68,191,-183
69,29,-263
70,-193,-283
71,-233,-209
72,-183,-155
73,-123,-143
74,-111,-141
75,-101,-139
76,-111,-139
77,-115,-143
78,-97,-139
79,-107,-135
80,-107,-139
81,-97,-135
82,-99,-137
83,-91,-133
84,-91,-135
85,-87,-137
86,-85,-139
87,-77,-125
88,-69,-133
89,-65,-131
90,-63,-135
91,-53,-135
92,-41,-137
93,-37,-141
94,-29,-141
95,-17,-137
96,-25,-135
97,-33,-137
98,-37,-143
99,-31,-141
100,-31,-133
101,-29,-135
102,-21,-133
103,-7,-127
104,-15,-125
105,-11,-129
106,-23,-125
107,-13,-123
108,-5,-127
109,-3,-129
110,-1,-129
111,3,-125
112,3,-121
113,13,-123
114,3,-125
115,7,-125
116,23,-123
117,25,-125
118,29,-127
119,29,-125
120,33,-121
121,35,-123
122,25,-125
123,37,-129
124,27,-125
125,27,-127
126,29,-129
127,31,-129
128,37,-129
129,39,-129
130,35,-133
131,37,-133
132,37,-129
133,37,-135
134,45,-133
135,41,-131
136,43,-129
137,49,-131
138,31,-137
139,39,-133
140,37,-133
141,41,-129
142,47,-129
143,45,-125
144,49,-125
145,59,-115
146,55,-103
147,57,-99
148,79,-81
149,57,-81
150,-505,-81
151,-535,-87
152,-501,-91
153,-479,-105
154,-475,-113
155,-467,-113
156,-459,-113
157,-453,-114
158,-457,-116
159,-373,-88
160,471,-86
161,699,-135
162,661,-137
163,629,-171
164,621,-243
165,623,-203
166,627,-133
167,631,-115
168,637,-103
169,641,-103
170,645,-107
171,647,-99
172,651,-97
173,653,-97
174,655,-101
175,659,-87
176,659,-89
177,663,-91
178,661,-89
179,663,-83
180,665,-87
181,665,-85
182,667,-85
183,671,-79
184,671,-81
185,673,-41
186,675,-15
187,675,-91
188,677,-87
189,677,-81
190,677,-85
191,679,-83
192,679,-79
193,679,-75
194,681,-81
195,681,-71
196,683,-67
197,683,-65
198,683,-57
199,683,-51
200,685,-53
201,683,-51
202,683,-47
203,683,-47
204,685,-49
205,685,-49
206,685,-47
207,685,-47
208,687,-41
209,687,-43
210,685,-41
211,685,-41
212,685,-41
213,685,-35
214,683,-35
215,683,-33
216,681,-31
217,681,-79
218,679,-35
219,679,-19
220,679,-33
221,677,-31
222,673,-35
223,673,-29
224,671,-29
225,669,-19
226,663,-29
227,661,-23
228,659,-35
229,659,-31
230,655,-21
231,653,-7
232,653,-31
233,649,-19
234,645,-21
235,643,-23
236,641,-15
237,639,-23
238,635,-25
239,633,-19
240,631,-13
241,629,-7
242,625,1
243,621,9
244,621,15
245,619,31
246,609,23
247,607,3
248,605,3
249,599,7
250,589,5
251,581,11
252,585,589
253,565,297
254,553,-39
255,561,-49
256,433,339
257,-389,115
258,-571,-79
259,-531,-35
260,-501,-75
261,-495,-157
262,-495,-114
263,-497,-56
264,-501,-52
265,-503,-77
266,-509,-543
267,-509,-501
268,-507,-425
269,-505,-301
270,-489,405
271,-479,783
272,-491,685
273,-303,635
274,507,617
275,657,611
276,611,601
277,581,585
278,573,539
279,567,73
280,563,-543
281,565,-473
282,567,-363
283,575,5
284,579,445
285,583,799
286,581,699
287,581,659
288,581,651
289,581,651
290,579,651
291,581,653
292,581,655
293,579,657
294,577,655
295,579,657
296,577,657
297,573,659
298,571,659
299,571,661
300,567,663
301,565,663
302,561,661
303,561,661
304,557,663
305,555,663
306,551,661
307,549,661
308,549,663
309,545,663
310,543,663
311,541,663
312,537,663
313,535,663
314,531,661
315,527,663
316,525,663
317,523,661
318,519,659
319,517,659
320,515,659
321,513,659
322,507,657
323,507,657
324,501,657
325,497,655
326,491,651
327,491,653
328,485,651
329,481,651
330,477,649
331,471,647
332,467,649
333,461,647
334,455,643
335,449,645
336,441,645
337,435,643
338,423,637
339,413,639
340,417,441
341,217,641
342,-583,639
343,-749,631
344,-717,627
345,-691,625
346,-685,623
347,-689,619
348,-693,620
349,-699,620
350,-707,608
351,-711,602
352,-717,596
353,-723,587
354,-725,589
355,-729,597
356,-733,599
357,-739,595
358,-743,587
359,-745,589
360,-749,587
361,-751,585
362,-755,583
363,-757,581
364,-763,581
365,-767,581
366,-769,573
367,-771,573
368,-773,573
369,-777,571
370,-779,563
371,-779,563
372,-783,559
373,-787,557
374,-789,551
375,-791,547
376,-793,545
377,-797,541
378,-799,535
379,-801,531
380,-803,531
381,-805,525
382,-809,519
383,-811,517
384,-811,515
385,-815,513
386,-819,509
387,-821,507
388,-823,509
389,-823,501
390,-829,497
391,-829,493
392,-831,491
393,-833,485
394,-835,479
395,-835,477
396,-837,475
397,-837,463
398,-839,459
399,-839,455
400,-839,453
401,-837,445
402,-841,437
403,-839,435
404,-841,429
405,-841,425
406,-843,415
407,-843,415
408,-843,411
409,-843,409
410,-849,403
411,-849,399
412,-849,393
413,-849,389
414,-853,381
415,-851,377
416,-853,373
417,-857,367
418,-859,369
419,-859,359
420,-859,351
421,-861,347
422,-863,353
423,-863,333
424,-865,339
425,-867,333
426,-869,337
427,-869,347
428,-869,339
429,-871,335
430,-873,321
431,-873,325
432,-873,315
433,-875,303
434,-877,307
435,-875,301
436,-877,299
437,-879,273
438,-879,287
439,-879,285
440,-881,273
441,-881,265
442,-883,287
443,-883,277
444,-881,227
445,-883,193
446,-887,139
447,-883,147
448,-881,201
449,-883,227
450,-883,235
451,-883,225
452,-881,223
453,-883,219
454,-883,215
455,-881,197
456,-877,211
457,-879,203
458,-879,205
459,-877,201
460,-877,197
461,-875,183
462,-877,165
463,-875,183
464,-873,191
465,-875,181
466,-871,171
467,-869,165
468,-869,157
469,-869,157
470,-869,149
471,-867,137
472,-865,131
473,-865,123
474,-865,125
475,-863,117
476,-859,117
477,-859,113
478,-861,109
479,-857,109
480,-855,115
481,-851,119
482,-851,115
483,-847,117
484,-845,121
485,-843,113
486,-841,107
487,-837,105
488,-833,105
489,-831,103
490,-829,95
491,-827,91
492,-827,93
493,-825,89
494,-821,81
495,-819,83
496,-817,77
497,-815,73
498,-813,69
499,-811,67
500,-809,67
501,-805,57
502,-803,53
503,-799,57
504,-797,51
505,-795,47
506,-793,41
507,-789,47
508,-785,37
509,-783,31
510,-783,19
511,-781,37
512,-777,31
513,-775,31
514,-773,21
515,-769,17
516,-765,17
517,-763,15
518,-759,7
519,-757,7
520,-755,9
521,-751,3
522,-749,1
523,-743,7
524,-743,1
525,-739,9
526,-737,9
527,-733,9
528,-729,-3
529,-725,-13
530,-727,-21
531,-717,-33
532,-715,-29
533,-713,-29
534,-711,-33
535,-707,-39
536,-705,-41
537,-699,-27
538,-703,-5
539,-689,-41
540,-691,-103
541,-687,-135
542,-685,-189
543,-681,-181
544,-677,-115
545,-675,-75
546,-663,-61
547,-661,-57
548,-661,-59
549,-661,-67
550,-659,-69
551,-653,-71
552,-651,-67
553,-649,-59
554,-575,-69
555,-627,-69
556,-635,-69
557,-631,-75
558,-623,-77
559,-623,-73
560,-615,-73
561,-617,-75
562,-461,-83
563,-575,-83
564,-589,-83
565,-583,-93
566,-567,-93
567,-567,-95
568,-569,-99
569,-395,-101
570,435,-109
571,605,-117
572,555,-583
573,535,-183
574,529,-49
575,531,-75
576,535,-85
577,537,-93
578,541,-97
579,545,-99
580,549,-95
581,551,-101
582,553,-107
583,555,-127
584,559,-129
585,561,-129
586,563,-131
587,565,-129
588,565,-129
589,567,-133
590,571,-131
591,571,-135
592,573,-133
593,575,-135
594,575,-141
595,579,-137
596,579,-137
597,583,-143
598,583,-141
599,587,-143
600,591,-145
601,591,-151
602,591,-155
603,595,-149
604,597,-151
605,599,-157
606,599,-151
607,601,-155
608,603,-153
609,605,-153
610,605,-151
611,607,-155
612,609,-153
613,611,-149
614,613,-141
615,613,-129
616,613,-127
617,615,-129
618,615,-131
619,617,-139
620,619,-143
621,619,-151
622,619,-147
623,621,-163
624,623,-165
625,625,-163
626,623,-169
627,625,-171
628,625,-161
629,629,-135
630,629,-167
631,631,-207
632,633,-225
633,631,-293
634,631,-315
635,635,-243
636,637,-183
637,639,-177
638,639,-173
639,639,-167
640,643,-171
641,643,-167
642,643,-173
643,647,-169
644,647,-165
645,647,-169
646,647,-159
647,647,-157
648,647,-157
649,647,-159
650,649,-159
651,649,-157
652,651,-151
653,651,-151
654,651,-155
655,653,-149
656,653,-151
657,655,-147
658,653,-153
659,657,-151
660,657,-157
661,655,-157
662,657,-155
663,655,-151
664,655,-151
665,657,-153
666,655,-153
667,657,-151
668,657,-155
669,659,-155
670,657,-155
671,659,-155
672,659,-161
673,661,-167
674,661,-165
675,663,-153
676,663,-145
677,663,-167
678,661,-181
679,663,-175
680,661,-173
681,659,-175
682,659,-155
683,657,-175
684,655,-181
685,655,-165
686,651,-149
687,649,-173
688,641,-165
689,633,-141
690,651,-141
691,325,-157
692,-413,-145
693,-515,-171
694,-471,-169
695,-445,-171
696,-437,-119
697,-435,-170
698,-437,-188
699,-437,-180
700,-437,-160
701,-437,-161
702,-439,-183
703,-435,-165
704,-433,-155
705,-429,-175
706,-427,-191
707,-417,-161
708,-409,-131
709,-413,-159
710,-299,-137
711,521,-125
712,747,-147
713,709,-139
714,677,-149
715,665,-171
716,665,-209
717,667,-215
718,669,-181
719,675,-179
720,677,-191
721,677,-183
722,679,-169
723,681,-191
724,683,-235
725,683,-237
726,683,-307
727,685,-349
728,685,-261
729,687,-207
730,685,-185
731,687,-167
732,687,-175
733,687,-175
734,685,-165
735,689,-161
736,687,-161
737,685,-165
738,683,-151
739,681,-155
740,683,-163
741,681,-149
742,679,-149
743,679,-153
744,681,-165
745,679,-159
746,677,-155
747,679,-145
748,679,-159
749,675,-157
750,673,-165
751,675,-151
752,675,-169
753,673,-139
754,669,-125
755,671,-153
756,669,-193
757,667,-161
758,665,-147
759,667,-175
760,667,-169
761,663,-125
762,661,-183
763,661,-147
764,657,-167
765,659,-201
766,657,-181
767,657,-167
768,655,-175
769,653,-175
770,651,-155
771,651,-137
772,651,-165
773,647,-181
774,645,-167
775,645,-203
776,645,-181
777,643,-171
778,641,-183
779,641,-145
780,641,-151
781,639,-185
782,637,-171
783,635,-207
784,635,-179
785,633,-175
786,631,-173
787,629,-169
788,629,-185
789,629,-189
790,625,-173
791,623,-197
792,623,-193
793,621,-163
794,619,-183
795,617,-173
796,617,-179
797,617,-167
798,617,-147
799,617,-177
800,617,-175
801,617,-173
802,615,-127
803,613,-173
804,613,-199
805,611,-189
806,609,-191
807,607,-187
808,605,-217
809,605,-195
810,603,-181
811,603,-203
812,605,-139
813,601,-189
814,599,-197
815,597,-233
816,595,-293
817,593,-323
818,589,-297
819,591,-215
820,589,-167
821,589,-191
822,587,-195
823,585,-167
824,583,-165
825,583,-189
826,581,-185
827,579,-177
828,579,-165
829,581,-161
830,581,-187
831,585,-153
832,585,-165
833,585,-197
834,583,-141
835,583,-145
836,583,-131
837,585,-187
838,583,-139
839,587,-169
840,587,-157
841,585,-161
842,583,-167
843,585,-155
844,585,-167
845,587,-157
846,585,-173
847,589,-147
848,585,-187
849,587,-135
850,583,-157
851,585,-145
852,585,-129
853,583,-133
854,583,-153
855,583,-131
856,581,-135
857,577,-125
858,575,-135
859,577,-151
860,573,-119
861,571,-133
862,567,-119
863,567,-131
864,567,-127
865,565,-125
866,563,-119
867,567,-137
868,561,-127
869,559,-131
870,561,-111
871,557,-119
872,557,-133
873,557,-101
874,553,-123
875,553,-123
876,553,-129
877,553,-103
878,549,-137
879,549,-115
880,543,-143
881,545,-121
882,541,-103
883,539,-115
884,539,-125
885,537,-121
886,535,-139
887,533,-83
888,529,-83
889,529,-101
890,525,-73
891,523,-107
892,521,-113
893,519,-109
894,517,-85
895,515,-149
896,511,-125
897,507,-107
898,503,-109
899,501,-113
900,501,-95
901,495,-83
902,499,-107
903,501,-141
904,505,-193
905,509,-271
906,473,-249
907,447,-149
908,459,-129
909,461,-89
910,461,-79
911,455,-107
912,457,-73
913,449,-91
914,443,-115
915,435,-81
916,445,-87
917,429,-83
918,427,-101
919,427,-67
920,415,-81
921,421,-87
922,407,-69
923,419,-69
924,405,-79
925,399,-77
926,411,-85
927,399,-63
928,383,-55
929,393,-67
930,393,-85
931,379,-77
932,359,-53
933,371,-77
934,359,-61
935,373,-77
936,341,-57
937,341,-69
938,351,-69
939,321,-57
940,321,-49
941,339,-55
942,313,-49
943,299,-69
944,297,-71
945,283,-67
946,289,-61
947,273,-57
948,273,-63
949,301,-59
950,257,-53
951,251,-61
952,257,-55
953,235,-63
954,241,-57
955,213,-55
956,231,-49
957,249,-61
958,221,-57
959,195,-55
960,183,-43
961,197,-63
962,171,-61
963,185,-59
964,167,-59
965,155,-39
966,155,-69
967,155,-53
968,155,-49
969,149,-69
970,119,-55
971,119,-71
972,107,-53
973,127,-65
974,91,-51
975,119,-53
976,77,-55
977,129,-55
978,83,-29
979,149,-47
980,81,-15
981,89,-25
982,123,-39
983,87,-47
984,77,-49
985,115,-59
986,51,-57
987,5,-61
988,43,-77
989,29,-65
990,1,-55
991,11,-43
992,17,-15
993,77,-73
994,191,-121
995,263,-171
996,79,-229
997,-137,-229
998,-149,-105
999,-75,-55
1000,-61,-47
1001,-29,-53
1002,-61,-51
1003,-33,-37
1004,-55,-37
1005,-99,-43
1006,-65,-49
1007,-89,-31
1008,-69,-41
1009,-77,-35
1010,-81,-33
1011,-47,-41
1012,-91,-25
1013,-47,-27
1014,-57,-19
1015,-97,-21
1016,-79,-23
1017,-75,-23
1018,-69,-31
1019,-87,-13
1020,-55,-21
1021,-77,-23
1022,-57,-25
1023,-75,-15
1024,-45,-17
1025,-81,-13
1026,-103,-21
1027,-45,-29
1028,-93,-15
1029,-117,-5
1030,-103,-21
1031,-89,-19
1032,-103,-13
1033,-117,-23
1034,-137,-29
1035,-127,-21
1036,-135,-21
1037,-129,-21
1038,-147,-27
1039,-107,-35
1040,-155,-15
1041,-149,-23
1042,-149,-31
1043,-131,-29
1044,-141,-17
1045,-149,-23
1046,-119,-29
1047,-155,-3
1048,-165,-35
1049,-183,-25
1050,-175,-25
1051,-163,-27
1052,-171,-35
1053,-159,-23
1054,-185,-35
1055,-177,-27
1056,-203,-23
1057,-207,-27
1058,-157,-47
1059,-175,-19
1060,-241,-33
1061,-211,-41
1062,-169,-27
1063,-201,-45
1064,-211,-27
1065,-197,-39
1066,-223,-33
1067,-223,-35
1068,-183,-17
1069,-173,-11
1070,-217,-15
1071,-177,-3
1072,-163,3
1073,-207,-11
1074,-211,-51
1075,-187,-43
1076,-213,-25
1077,-239,-43
1078,-209,-43
1079,-199,-73
1080,-303,-37
1081,-247,-57
1082,-273,-25
1083,-239,-17
1084,-215,-47
1085,-33,-87
1086,59,-157
1087,-195,-243
1088,-385,-207
1089,-391,-75
1090,-309,-71
1091,-321,-29
1092,-291,-45
1093,-255,-51
1094,-313,-37
1095,-295,-31
1096,-297,-33
1097,-277,-53
1098,-309,-31
1099,-261,-29
1100,-309,-15
1101,-295,-31
1102,-275,-35
1103,-287,-21
1104,-301,-19
1105,-259,-49
1106,-245,-49
1107,-307,9
1108,-285,-23
1109,-277,-29
1110,-259,-19
1111,-255,-25
1112,-203,-27
1113,-273,-29
1114,-207,-43
1115,-273,-11
1116,-265,-25
1117,-283,-33
1118,-207,-27
1119,-283,-5
1120,-239,-49
1121,-273,-19
1122,-283,-9
1123,-277,-29
1124,-293,-29
1125,-265,-31
1126,-269,-31
1127,-271,-17
1128,-261,-21
1129,-289,-11
1130,-293,-41
1131,-283,-21
1132,-243,-17
1133,-273,-33
1134,-279,-25
1135,-289,-17
1136,-265,-31
1137,-221,-17
1138,-309,-19
1139,-287,-37
1140,-243,-5
1141,-301,-31
1142,-289,-31
1143,-269,-21
1144,-257,-19
1145,-303,-51
1146,-291,-29
1147,-259,-31
1148,-303,-31
1149,-305,-25
1150,-299,-35
1151,-261,-37
1152,-281,-23
1153,-289,-21
1154,-285,-47
1155,-305,-31
1156,-261,-31
1157,-261,-29
1158,-285,-13
1159,-307,-15
1160,-229,-17
1161,-247,5
1162,-241,-1
1163,-249,-15
1164,-219,-17
1165,-235,-25
1166,-243,-33
1167,-301,-43
1168,-257,-31
1169,-303,-33
1170,-283,-33
1171,-301,-47
1172,-231,-1
1173,-275,9
1174,-213,-55
1175,-55,-93
1176,15,-145
1177,-239,-223
1178,-413,-147
1179,-407,-39
1180,-335,-41
1181,-281,-15
1182,-311,-33
1183,-297,-47
1184,-285,-29
1185,-289,-15
1186,-313,-19
1187,-283,-39
1188,-275,-3
1189,-293,-11
1190,-293,-35
1191,-257,-23
1192,-283,-17
1193,-283,-9
1194,-271,-11
1195,-279,-5
1196,-245,-33
1197,-283,7
1198,-243,-27
1199,-255,-7
1200,-259,-7
1201,-227,-9
1202,-239,-19
1203,-243,-13
1204,-221,-35
1205,-243,-13
1206,-223,-11
1207,-213,-19
1208,-233,-13
1209,-231,-3
1210,-247,-3
1211,-231,-5
1212,-253,-5
1213,-205,-15
1214,-233,3
1215,-253,-3
1216,-203,-7
1217,-239,-17
1218,-245,-7
1219,-209,-9
1220,-235,-15
1221,-237,-9
1222,-235,-9
1223,-239,-9
1224,-205,-9
1225,-209,-1
1226,-225,-25
1227,-245,-5
1228,-219,-11
1229,-217,-9
1230,-261,-11
1231,-241,-13
1232,-207,-19
1233,-239,-17
1234,-233,-15
1235,-225,-7
1236,-235,-29
1237,-251,-5
1238,-201,-31
1239,-225,-19
1240,-251,-21
1241,-245,-19
1242,-233,-17
1243,-237,-23
1244,-207,-15
1245,-231,-29
1246,-253,-13
1247,-211,-25
1248,-221,-11
1249,-215,-11
1250,-201,-7
1251,-231,-1
1252,-213,5
1253,-179,13
1254,-183,-11
1255,-189,-3
1256,-177,-7
1257,-193,-7
1258,-191,-31
1259,-223,-31
1260,-245,-29
1261,-215,-35
1262,-247,-35
1263,-205,-51
1264,-219,5
1265,-245,11
1266,-151,-61
1267,-13,-95
1268,113,-165
1269,-143,-231
1270,-377,-149
1271,-351,-61
1272,-255,-23
1273,-243,-37
1274,-257,-31
1275,-245,-21
1276,-219,-31
1277,-233,-9
1278,-227,-15
1279,-243,-21
