,0,1
0,-31,-9
1,-37,-7
2,-43,-9
3,-45,-11
4,-47,-13
5,-47,-11
6,-47,-11
7,-47,-13
8,-45,-15
9,-43,-15
10,-43,-13
11,-43,-13
12,-43,-15
13,-41,-13
14,-41,-13
15,-39,-13
16,-41,-15
17,-39,-13
18,-41,-13
19,-39,-13
20,-41,-15
21,-39,-15
22,-41,-13
23,-39,-15
24,-41,-15
25,-41,-15
26,-43,-15
27,-45,-17
28,-43,-17
29,-43,-19
30,-45,-19
31,-45,-21
32,-45,-21
33,-43,-19
34,-43,-19
35,-43,-21
36,-45,-19
37,-43,-19
38,-45,-21
39,-43,-23
40,-45,-21
41,-45,-19
42,-45,-21
43,-45,-21
44,-43,-21
45,-41,-21
46,-41,-23
47,-41,-23
48,-39,-21
49,-41,-19
50,-41,-23
51,-41,-21
52,-41,-21
53,-39,-19
54,-39,-21
55,-41,-23
56,-37,-21
57,-37,-19
58,-37,-19
59,-37,-21
60,-35,-19
61,-35,-19
62,-35,-19
63,-35,-21
64,-35,-21
65,-35,-19
66,-37,-19
67,-35,-21
68,-35,-21
69,-35,-19
70,-35,-21
71,-35,-21
72,-35,-19
73,-33,-17
74,-33,-21
75,-33,-21
76,-33,-21
77,-31,-19
78,-31,-21
79,-31,-23
80,-31,-21
81,-31,-19
82,-31,-21
83,-31,-21
84,-31,-19
85,-27,-17
86,-31,-21
87,-29,-21
88,-29,-19
89,-27,-17
90,-29,-17
91,-27,-19
92,-27,-19
93,-25,-17
94,-29,-19
95,-27,-19
96,-25,-17
97,-27,-13
98,-25,-15
99,-17,-5
100,-13,-1
101,7,3
102,7,1
103,-13,-19
104,-17,-23
105,-17,-17
106,-19,-17
107,-31,-21
108,-33,-25
109,-31,-25
110,-27,-23
111,-29,-25
112,-25,-23
113,-25,-21
114,-19,-21
115,-33,-17
116,-113,19
117,-129,57
118,51,63
119,411,-37
120,597,-163
121,631,-243
122,259,-219
123,29,-115
124,-17,-25
125,-25,3
126,-33,-3
127,-37,-7
128,-41,-7
129,-43,-3
130,-43,-5
131,-43,-7
132,-41,-5
133,-39,-3
134,-41,-5
135,-39,-5
136,-39,-5
137,-37,-3
138,-37,-5
139,-39,-7
140,-37,-7
141,-35,-3
142,-33,-5
143,-35,-7
144,-29,-5
145,-27,-3
146,-23,-5
147,-19,-7
148,-13,-5
149,-9,-3
150,-1,-5
151,5,-3
152,17,-1
153,29,1
154,41,1
155,51,-1
156,65,1
157,79,3
158,89,3
159,95,1
160,103,1
161,101,1
162,85,-1
163,61,-3
164,31,-1
165,7,-1
166,-15,-1
167,-29,-3
168,-37,-3
169,-43,-3
170,-49,-5
171,-51,-7
172,-49,-7
173,-47,-7
174,-47,-9
175,-49,-9
176,-45,-9
177,-43,-7
178,-45,-9
179,-45,-9
180,-43,-9
181,-43,-7
182,-41,-7
183,-41,-9
184,-41,-9
185,-41,-5
186,-41,-9
187,-43,-9
188,-45,-9
189,-43,-9
190,-45,-11
191,-47,-11
192,-47,-13
193,-47,-9
194,-47,-13
195,-47,-13
196,-47,-13
197,-47,-11
198,-47,-15
199,-49,-15
200,-47,-15
201,-47,-13
202,-47,-17
203,-47,-19
204,-49,-17
205,-47,-15
206,-49,-17
207,-49,-17
208,-47,-17
209,-45,-15
210,-47,-17
211,-49,-19
212,-47,-17
213,-45,-17
214,-45,-17
215,-43,-19
216,-43,-17
217,-41,-17
218,-43,-17
219,-43,-19
220,-45,-19
221,-41,-15
222,-43,-17
223,-41,-19
224,-37,-17
225,-35,-15
226,-37,-17
227,-41,-19
228,-39,-17
229,-37,-15
230,-39,-15
231,-39,-19
232,-37,-17
233,-35,-15
234,-37,-15
235,-37,-17
236,-35,-17
237,-31,-15
238,-33,-17
239,-37,-17
240,-31,-15
241,-31,-15
242,-33,-15
243,-33,-17
244,-31,-17
245,-31,-13
246,-31,-13
247,-35,-15
248,-25,-11
249,-21,1
250,-5,5
251,1,3
252,-15,-11
253,-17,-21
254,-15,-17
255,-21,-17
256,-31,-19
257,-33,-19
258,-31,-23
259,-31,-25
260,-29,-21
261,-27,-17
262,-27,-19
263,-21,-19
264,-19,-17
265,-81,5
266,-127,43
267,-23,73
268,307,37
269,573,-85
270,675,-185
271,373,-237
272,49,-159
273,-13,-51
274,-21,-7
275,-29,-3
276,-35,-7
277,-37,-7
278,-39,-7
279,-41,-9
280,-37,-7
281,-37,-3
282,-37,-5
283,-39,-5
284,-39,-5
285,-35,-3
286,-35,-5
287,-33,-7
288,-35,-7
289,-33,-5
290,-31,-7
291,-29,-11
292,-27,-9
293,-23,-7
294,-21,-9
295,-19,-11
296,-13,-9
297,-9,-7
298,-3,-9
299,3,-11
300,11,-9
301,23,-7
302,33,-9
303,43,-9
304,59,-9
305,73,-5
306,85,-7
307,93,-5
308,105,-7
309,113,-3
310,115,-5
311,105,-7
312,83,-7
313,53,-1
314,25,1
315,-1,-1
316,-19,-1
317,-29,1
318,-37,-3
319,-41,-5
320,-45,-5
321,-45,-5
322,-45,-7
323,-45,-7
324,-45,-9
325,-41,-7
326,-41,-7
327,-41,-9
328,-39,-9
329,-37,-7
330,-37,-9
331,-39,-9
332,-35,-7
333,-35,-7
334,-35,-7
335,-37,-9
336,-35,-11
337,-35,-7
338,-35,-9
339,-37,-11
340,-37,-11
341,-37,-9
342,-37,-11
343,-39,-13
344,-39,-15
345,-37,-15
346,-39,-15
347,-37,-17
348,-37,-17
349,-37,-15
350,-37,-19
351,-39,-21
352,-39,-19
353,-39,-17
354,-39,-17
355,-37,-21
356,-37,-17
357,-35,-17
358,-35,-19
359,-35,-21
360,-37,-19
361,-33,-19
362,-33,-19
363,-33,-21
364,-33,-19
365,-31,-19
366,-33,-21
367,-31,-21
368,-29,-21
369,-27,-19
370,-29,-21
371,-29,-21
372,-29,-21
373,-27,-19
374,-27,-21
375,-27,-23
376,-25,-21
377,-25,-19
378,-23,-19
379,-31,-19
380,-27,-17
381,-17,-13
382,-11,-5
383,7,-3
384,7,-1
385,-9,-13
386,-13,-25
387,-13,-23
388,-15,-21
389,-23,-21
390,-27,-25
391,-23,-29
392,-23,-29
393,-19,-25
394,-19,-25
395,-15,-25
396,-9,-23
397,-17,-19
398,-95,7
399,-111,49
400,59,71
401,409,-3
402,609,-133
403,663,-227
404,301,-239
405,45,-149
406,-7,-49
407,-13,-11
408,-19,-7
409,-23,-9
410,-27,-11
411,-31,-11
412,-29,-11
413,-29,-7
414,-29,-7
415,-29,-9
416,-29,-9
417,-27,-7
418,-29,-9
419,-29,-9
420,-29,-9
421,-27,-9
422,-27,-9
423,-27,-11
424,-23,-9
425,-23,-9
426,-19,-9
427,-19,-11
428,-15,-11
429,-11,-9
430,-5,-9
431,-3,-11
432,7,-9
433,17,-7
434,27,-5
435,37,-7
436,51,-5
437,67,-3
438,79,-5
439,91,-5
440,101,-5
441,113,-1
442,119,-1
443,117,-3
444,105,-5
445,83,-3
446,51,-1
447,23,-1
448,-1,1
449,-17,1
450,-29,-1
451,-35,-5
452,-39,-5
453,-39,-3
454,-41,-5
455,-41,-7
456,-41,-5
457,-39,-5
458,-39,-7
459,-39,-7
460,-37,-7
461,-35,-3
462,-37,-7
463,-37,-7
464,-35,-5
465,-35,-5
466,-33,-5
467,-33,-7
468,-31,-5
469,-33,-5
470,-31,-5
471,-35,-9
472,-33,-5
473,-37,-5
474,-37,-7
475,-37,-7
476,-37,-7
477,-35,-7
478,-37,-9
479,-37,-9
480,-35,-9
481,-35,-9
482,-35,-11
483,-37,-11
484,-37,-11
485,-35,-9
486,-37,-11
487,-37,-11
488,-37,-11
489,-35,-11
490,-37,-11
491,-35,-13
492,-35,-11
493,-33,-11
494,-33,-11
495,-33,-13
496,-33,-11
497,-33,-9
498,-33,-11
499,-31,-11
500,-31,-11
501,-31,-9
502,-29,-11
503,-29,-11
504,-27,-11
505,-27,-7
506,-31,-7
507,-25,-7
508,-19,3
509,-5,9
510,7,11
511,-11,1
512,-15,-17
513,-15,-11
514,-15,-11
515,-21,-11
516,-29,-17
517,-27,-17
518,-27,-19
519,-25,-19
520,-23,-17
521,-21,-17
522,-19,-15
523,-13,-15
524,-33,-9
525,-109,27
526,-99,61
527,103,77
528,461,-3
529,621,-133
530,617,-221
531,221,-219
532,29,-121
533,-11,-25
534,-17,3
535,-25,1
536,-27,-3
537,-29,-1
538,-31,-1
539,-33,-3
540,-33,-1
541,-29,-1
542,-31,-1
543,-31,-1
544,-33,-1
545,-29,1
546,-29,-1
547,-29,-3
548,-27,-1
549,-25,1
550,-27,-1
551,-25,-5
552,-23,-3
553,-19,-3
554,-17,-3
555,-15,-5
556,-9,-5
557,-3,-3
558,3,-3
559,9,-3
560,19,-3
561,33,-1
562,45,-1
563,59,-1
564,73,1
565,85,1
566,99,1
567,109,-1
568,117,1
569,111,1
570,97,1
571,71,3
572,45,5
573,19,7
574,-3,7
575,-21,5
576,-31,5
577,-35,3
578,-41,3
579,-43,-1
580,-43,1
581,-43,1
582,-43,-1
583,-43,-1
584,-43,-1
585,-41,-1
586,-39,-1
587,-39,-3
588,-37,-1
589,-37,1
590,-37,-1
591,-39,-3
592,-37,-3
593,-37,-3
594,-37,-5
595,-39,-5
596,-39,-3
597,-39,-3
598,-39,-5
599,-41,-7
600,-41,-7
601,-41,-5
602,-41,-7
603,-43,-7
604,-43,-9
605,-43,-7
606,-45,-9
607,-45,-11
608,-43,-11
609,-41,-9
610,-43,-11
611,-43,-13
612,-43,-13
613,-41,-11
614,-43,-11
615,-45,-13
616,-43,-11
617,-41,-11
618,-43,-11
619,-43,-13
620,-41,-13
621,-41,-11
622,-43,-13
623,-43,-13
624,-43,-13
625,-39,-9
626,-39,-11
627,-39,-13
628,-39,-13
629,-37,-11
630,-37,-11
631,-37,-13
632,-39,-13
633,-35,-11
634,-35,-11
635,-37,-11
636,-43,-11
637,-29,-7
638,-27,-1
639,-17,3
640,-1,5
641,-13,3
642,-23,-19
643,-21,-17
644,-23,-13
645,-29,-11
646,-37,-17
647,-37,-21
648,-33,-21
649,-31,-19
650,-33,-19
651,-31,-19
652,-27,-17
653,-19,-13
654,-49,-11
655,-123,23
656,-95,59
657,123,79
658,483,1
659,635,-123
660,575,-213
661,137,-203
662,-5,-107
663,-25,-25
664,-31,-1
665,-37,-1
666,-39,-5
667,-43,-7
668,-41,-5
669,-41,-3
670,-41,-5
671,-39,-5
672,-39,-3
673,-39,-3
674,-39,-3
675,-39,-5
676,-35,-5
677,-33,-5
678,-37,-7
679,-35,-7
680,-33,-7
681,-29,-7
682,-29,-7
683,-27,-9
684,-23,-9
685,-19,-9
686,-15,-9
687,-11,-11
688,-5,-9
689,7,-7
690,15,-9
691,27,-9
692,41,-9
693,55,-7
694,69,-9
695,77,-9
696,87,-7
697,95,-5
698,103,-7
699,103,-9
700,89,-7
701,65,-1
702,37,-1
703,7,1
704,-17,1
705,-29,5
706,-39,1
707,-45,-1
708,-49,-1
709,-49,-1
710,-51,-3
711,-51,-5
712,-49,-5
713,-47,-3
714,-49,-3
715,-49,-5
716,-47,-3
717,-45,-3
718,-47,-5
719,-47,-7
720,-45,-5
721,-43,-5
722,-43,-5
723,-45,-7
724,-43,-5
725,-43,-5
726,-45,-7
727,-45,-7
728,-45,-7
729,-45,-7
730,-47,-9
731,-47,-9
732,-47,-11
733,-47,-9
734,-45,-11
735,-47,-13
736,-47,-13
737,-45,-13
738,-47,-13
739,-47,-15
740,-47,-13
741,-47,-13
742,-47,-15
743,-45,-15
744,-45,-15
745,-43,-13
746,-45,-15
747,-45,-17
748,-43,-17
749,-43,-15
750,-43,-15
751,-43,-17
752,-41,-17
753,-39,-15
754,-39,-15
755,-43,-13
756,-43,-13
757,-35,-11
758,-29,-3
759,-15,-1
760,-3,3
761,-19,-3
762,-25,-23
763,-27,-21
764,-27,-19
765,-35,-17
766,-41,-23
767,-37,-27
768,-35,-25
769,-33,-21
770,-31,-25
771,-29,-23
772,-27,-21
773,-15,-19
774,-69,-13
775,-135,33
776,-61,69
777,227,61
778,537,-55
779,657,-167
780,485,-245
781,103,-193
782,-7,-87
783,-21,-19
784,-25,-3
785,-35,-7
786,-39,-11
787,-43,-11
788,-41,-9
789,-41,-7
790,-41,-9
791,-43,-11
792,-41,-9
793,-41,-9
794,-39,-9
795,-39,-11
796,-39,-11
797,-37,-9
798,-35,-11
799,-35,-13
800,-33,-11
801,-29,-11
802,-29,-11
803,-27,-13
804,-23,-11
805,-19,-11
806,-15,-13
807,-11,-13
808,-3,-13
809,5,-11
810,15,-11
811,23,-13
812,37,-13
813,51,-9
814,63,-11
815,75,-11
816,85,-11
817,97,-5
818,105,-7
819,103,-11
820,93,-9
821,69,-5
822,41,-5
823,9,-5
824,-11,-3
825,-29,-1
826,-39,-5
827,-45,-7
828,-47,-7
829,-47,-7
830,-47,-9
831,-49,-11
832,-49,-11
833,-47,-9
834,-47,-11
835,-47,-13
836,-45,-11
837,-43,-9
838,-43,-11
839,-41,-13
840,-41,-13
841,-39,-9
842,-39,-11
843,-39,-13
844,-41,-13
845,-39,-9
846,-41,-11
847,-43,-13
848,-43,-13
849,-43,-11
850,-41,-13
851,-45,-15
852,-47,-17
853,-45,-13
854,-45,-15
855,-47,-17
856,-45,-17
857,-45,-15
858,-47,-19
859,-47,-21
860,-47,-19
861,-45,-19
862,-45,-19
863,-45,-21
864,-45,-19
865,-45,-19
866,-47,-21
867,-45,-21
868,-45,-19
869,-43,-19
870,-43,-21
871,-45,-21
872,-43,-21
873,-43,-19
874,-41,-21
875,-43,-23
876,-41,-21
877,-41,-19
878,-41,-21
879,-45,-19
880,-39,-19
881,-35,-11
882,-23,-7
883,-7,-3
884,-13,-7
885,-27,-23
886,-27,-27
887,-29,-25
888,-31,-21
889,-39,-23
890,-43,-29
891,-41,-31
892,-37,-29
893,-35,-27
894,-35,-29
895,-33,-29
896,-27,-25
897,-25,-21
898,-101,-3
899,-139,39
900,-25,69
901,335,21
902,575,-105
903,655,-203
904,391,-253
905,57,-173
906,-19,-63
907,-31,-15
908,-35,-7
909,-41,-13
910,-43,-13
911,-45,-15
912,-45,-15
913,-45,-13
914,-43,-13
915,-45,-13
916,-43,-13
917,-43,-11
918,-41,-15
919,-43,-15
920,-41,-15
921,-39,-13
922,-39,-15
923,-39,-17
924,-35,-15
925,-33,-15
926,-31,-17
927,-31,-19
928,-27,-17
929,-23,-15
930,-21,-17
931,-15,-17
932,-7,-17
933,3,-15
934,13,-15
935,23,-17
936,37,-15
937,53,-13
938,63,-13
939,73,-13
940,87,-13
941,97,-9
942,101,-11
943,93,-15
944,75,-13
945,47,-7
946,17,-7
947,-9,-9
948,-25,-7
949,-39,-7
950,-45,-9
951,-51,-13
952,-53,-11
953,-53,-11
954,-53,-13
955,-53,-15
956,-51,-13
957,-53,-13
958,-49,-15
959,-51,-17
960,-49,-17
961,-47,-15
962,-47,-15
963,-47,-15
964,-45,-15
965,-47,-15
966,-47,-17
967,-47,-17
968,-47,-15
969,-47,-15
970,-47,-17
971,-47,-19
972,-51,-17
973,-51,-17
974,-51,-21
975,-51,-19
976,-53,-19
977,-53,-19
978,-55,-21
979,-53,-21
980,-53,-21
981,-53,-21
982,-53,-23
983,-55,-23
984,-55,-23
985,-55,-21
986,-55,-23
987,-55,-23
988,-55,-23
989,-53,-23
990,-55,-25
991,-53,-25
992,-51,-23
993,-49,-23
994,-53,-23
995,-51,-25
996,-51,-23
997,-49,-23
998,-51,-23
999,-49,-25
1000,-51,-23
1001,-47,-21
1002,-51,-23
1003,-47,-25
1004,-45,-23
1005,-47,-23
1006,-47,-25
1007,-49,-25
1008,-51,-21
1009,-43,-19
1010,-39,-13
1011,-29,-9
1012,-11,-7
1013,-21,-7
1014,-33,-27
1015,-33,-31
1016,-31,-25
1017,-37,-23
1018,-47,-29
1019,-47,-31
1020,-43,-33
1021,-39,-29
1022,-41,-29
1023,-41,-29
1024,-39,-27
1025,-33,-25
1026,-49,-21
1027,-123,9
1028,-131,45
1029,57,71
1030,433,-9
1031,615,-145
1032,587,-239
1033,183,-221
1034,-5,-127
1035,-35,-37
1036,-37,-7
1037,-43,-9
1038,-53,-15
1039,-53,-17
1040,-51,-13
1041,-53,-11
1042,-53,-13
1043,-55,-13
1044,-53,-13
1045,-51,-11
1046,-51,-13
1047,-51,-15
1048,-49,-13
1049,-49,-11
1050,-49,-15
1051,-49,-15
1052,-47,-13
1053,-43,-13
1054,-43,-17
1055,-41,-17
1056,-37,-15
1057,-33,-13
1058,-31,-15
1059,-27,-15
1060,-21,-15
1061,-13,-13
1062,-3,-15
1063,9,-15
1064,21,-15
1065,35,-13
1066,47,-15
1067,57,-15
1068,71,-13
1069,81,-11
1070,89,-11
1071,91,-11
1072,85,-13
1073,63,-7
1074,35,-7
1075,5,-7
1076,-17,-5
1077,-33,-3
1078,-47,-3
1079,-57,-9
1080,-61,-7
1081,-59,-7
1082,-61,-9
1083,-65,-11
1084,-61,-9
1085,-61,-9
1086,-61,-9
1087,-61,-13
1088,-61,-11
1089,-57,-9
1090,-57,-11
1091,-57,-11
1092,-57,-9
1093,-57,-11
1094,-59,-11
1095,-59,-13
1096,-57,-11
1097,-57,-9
1098,-57,-11
1099,-59,-13
1100,-59,-11
1101,-57,-11
1102,-59,-11
1103,-61,-15
1104,-59,-15
1105,-59,-13
1106,-59,-15
1107,-61,-17
1108,-61,-17
1109,-59,-15
1110,-59,-17
1111,-59,-19
1112,-57,-19
1113,-57,-17
1114,-57,-17
1115,-59,-19
1116,-57,-21
1117,-55,-15
1118,-59,-17
1119,-57,-19
1120,-57,-19
1121,-55,-17
1122,-55,-17
1123,-55,-19
1124,-51,-17
1125,-55,-15
1126,-57,-17
1127,-47,-13
1128,-41,-7
1129,-23,1
1130,-17,1
1131,-35,-13
1132,-37,-27
1133,-35,-19
1134,-37,-21
1135,-47,-21
1136,-49,-25
1137,-47,-27
1138,-45,-27
1139,-45,-27
1140,-43,-25
1141,-41,-23
1142,-37,-23
1143,-31,-21
1144,-85,-9
1145,-147,41
1146,-69,75
1147,271,41
1148,563,-87
1149,673,-195
1150,369,-249
1151,35,-165
1152,-31,-51
1153,-37,-5
1154,-43,-7
1155,-47,-13
1156,-49,-13
1157,-47,-9
1158,-51,-11
1159,-51,-11
1160,-49,-11
1161,-47,-9
1162,-47,-9
1163,-47,-11
1164,-45,-11
1165,-43,-9
1166,-43,-11
1167,-41,-13
1168,-41,-13
1169,-39,-11
1170,-37,-13
1171,-35,-15
1172,-31,-13
1173,-29,-13
1174,-25,-15
1175,-21,-17
1176,-15,-15
1177,-9,-11
1178,1,-15
1179,9,-15
1180,21,-13
1181,31,-11
1182,43,-13
1183,57,-13
1184,67,-13
1185,79,-9
1186,91,-9
1187,99,-11
1188,99,-9
1189,89,-7
1190,63,-7
1191,37,-3
1192,9,-1
1193,-13,1
1194,-29,-1
1195,-39,-3
1196,-47,-5
1197,-49,-3
1198,-49,-5
1199,-51,-7
1200,-49,-7
1201,-49,-5
1202,-49,-7
1203,-49,-9
1204,-47,-7
1205,-45,-7
1206,-45,-9
1207,-45,-9
1208,-43,-7
1209,-41,-7
1210,-45,-7
1211,-45,-11
1212,-45,-11
1213,-41,-7
1214,-43,-9
1215,-45,-11
1216,-45,-9
1217,-45,-7
1218,-45,-9
1219,-47,-11
1220,-47,-11
1221,-45,-9
1222,-47,-11
1223,-49,-13
1224,-49,-13
1225,-47,-11
1226,-49,-13
1227,-49,-17
1228,-47,-15
1229,-47,-13
1230,-47,-15
1231,-49,-17
1232,-47,-17
1233,-45,-13
1234,-45,-17
1235,-49,-17
1236,-47,-17
1237,-43,-13
1238,-45,-15
1239,-43,-17
1240,-43,-17
1241,-43,-15
1242,-41,-15
1243,-43,-17
1244,-41,-15
1245,-41,-11
1246,-45,-13
1247,-37,-11
1248,-31,-3
1249,-17,3
1250,-5,3
1251,-23,-9
1252,-27,-23
1253,-27,-15
1254,-27,-19
1255,-35,-19
1256,-41,-23
1257,-41,-23
1258,-37,-25
1259,-37,-25
1260,-33,-23
1261,-33,-21
1262,-29,-21
1263,-23,-21
1264,-59,-11
1265,-127,33
1266,-117,61
1267,97,65
1268,469,-33
1269,621,-161
1270,601,-247
1271,187,-213
1272,3,-101
1273,-29,-15
1274,-35,1
1275,-39,-7
1276,-41,-9
1277,-43,-7
1278,-45,-9
1279,-45,-9
