,0,1
0,65,61
1,43,33
2,21,11
3,3,-1
4,-25,-19
5,-39,-25
6,-41,-29
7,-47,-31
8,-53,-37
9,-55,-31
10,-55,-37
11,-59,-41
12,-59,-37
13,-57,-29
14,-57,-27
15,-53,-43
16,-67,-51
17,-57,-39
18,-49,-37
19,-57,-29
20,-31,-33
21,-27,-41
22,-25,-31
23,-35,-37
24,-33,-35
25,-31,-33
26,-29,-31
27,-35,-31
28,-33,-31
29,-25,-27
30,-17,-21
31,-21,-17
32,-13,-21
33,3,-15
34,-7,-11
35,-13,-33
36,-9,-39
37,-9,-13
38,-27,-25
39,-49,-39
40,-41,-77
41,-41,-59
42,-47,-51
43,-43,-49
44,-41,-47
45,-45,-41
46,-45,-43
47,-37,-37
48,-51,-35
49,-41,-33
50,-41,-31
51,-35,-55
52,-77,-43
53,-97,-7
54,21,29
55,279,25
56,405,-7
57,127,-123
58,-199,-307
59,-257,-393
60,-217,-341
61,-107,-235
62,-61,-101
63,-39,-23
64,-29,-9
65,-27,-1
66,-27,11
67,-31,21
68,-29,7
69,-21,15
70,-3,17
71,3,25
72,11,25
73,13,25
74,13,39
75,29,53
76,41,37
77,45,31
78,57,51
79,67,67
80,81,73
81,99,91
82,115,97
83,127,103
84,137,105
85,139,105
86,139,101
87,125,91
88,105,75
89,71,57
90,41,33
91,9,15
92,-9,-25
93,-13,-27
94,-25,-27
95,-33,-33
96,-37,-37
97,-37,-37
98,-39,-33
99,-39,-33
100,-39,-37
101,-41,-27
102,-35,-31
103,-41,-31
104,-47,-39
105,-47,-37
106,-37,-31
107,-33,-35
108,-37,-31
109,-29,-31
110,-25,-23
111,-27,-25
112,-19,-25
113,-19,-19
114,-27,-23
115,-23,-27
116,-17,-23
117,-9,-25
118,1,-15
119,-7,-7
120,5,-11
121,15,-5
122,11,-5
123,5,-25
124,11,-29
125,5,-17
126,-19,-19
127,-33,-31
128,-31,-39
129,-35,-45
130,-41,-43
131,-45,-41
132,-43,-43
133,-37,-39
134,-35,-33
135,-37,-35
136,-39,-33
137,-35,-29
138,-35,-25
139,-39,-27
140,-83,-15
141,-77,13
142,87,31
143,373,27
144,405,17
145,25,-139
146,-229,-327
147,-255,-397
148,-161,-323
149,-73,-201
150,-33,-73
151,-27,-27
152,-15,-7
153,-11,5
154,-5,9
155,-1,13
156,-1,19
157,5,5
158,15,7
159,15,17
160,19,19
161,27,25
162,29,33
163,37,37
164,45,45
165,57,53
166,59,63
167,79,73
168,91,87
169,117,101
170,127,111
171,131,109
172,139,115
173,141,129
174,151,109
175,139,89
176,117,81
177,85,61
178,53,35
179,35,19
180,11,1
181,-3,-11
182,-17,-15
183,-27,-23
184,-33,-27
185,-31,-31
186,-35,-29
187,-33,-21
188,-27,-17
189,-25,-35
190,-27,-45
191,-29,-35
192,-29,-43
193,-27,-45
194,-35,-35
195,-33,-31
196,-29,-37
197,-21,-27
198,-25,-29
199,-25,-31
200,-27,-27
201,-25,-15
202,-27,-29
203,-27,-37
204,-25,-19
205,-15,-31
206,-9,-23
207,-13,-15
208,-11,-13
209,-1,-9
210,9,-1
211,-3,-11
212,1,-31
213,7,-15
214,-9,-13
215,-37,-15
216,-41,-25
217,-41,-51
218,-45,-55
219,-47,-21
220,-45,-45
221,-45,-55
222,-43,-45
223,-49,-45
224,-51,-45
225,-47,-43
226,-43,-29
227,-43,-33
228,-57,-25
229,-105,-17
230,-71,25
231,149,49
232,411,25
233,321,-23
234,-105,-215
235,-269,-363
236,-249,-371
237,-119,-243
238,-63,-133
239,-43,-57
240,-35,-29
241,-31,-3
242,-25,9
243,-23,7
244,-29,21
245,-15,11
246,-21,35
247,-11,33
248,-3,9
249,9,27
250,5,55
251,-5,29
252,11,43
253,17,55
254,25,59
255,33,65
256,65,49
257,83,73
258,93,89
259,109,99
260,111,119
261,117,121
262,123,125
263,117,109
264,95,103
265,81,75
266,49,49
267,17,19
268,-13,5
269,-25,-3
270,-43,-15
271,-41,-15
272,-47,-17
273,-53,-37
274,-51,-35
275,-45,-37
276,-57,-39
277,-59,-35
278,-49,-31
279,-55,-37
280,-57,-29
281,-55,-31
282,-57,-27
283,-51,-23
284,-49,-39
285,-55,-29
286,-51,-29
287,-49,-37
288,-49,-31
289,-51,-25
290,-45,-25
291,-37,-23
292,-55,-23
293,-43,-19
294,-27,-9
295,-27,-3
296,-25,-3
297,-15,-3
298,-5,7
299,-17,-19
300,-29,-33
301,-41,-21
302,-43,-27
303,-71,-35
304,-117,-43
305,-95,-47
306,-89,-35
307,-101,-45
308,-99,-47
309,-67,-37
310,-43,-33
311,-77,-33
312,-69,-45
313,-41,-51
314,-47,-27
315,-39,-47
316,-35,-35
317,-57,-33
318,-97,-11
319,-17,29
320,205,35
321,417,19
322,271,-93
323,-101,-309
324,-235,-419
325,-181,-399
326,-73,-265
327,-47,-89
328,-35,-15
329,-41,9
330,-33,25
331,-37,23
332,-19,21
333,-29,29
334,-47,27
335,-75,25
336,-71,21
337,-7,25
338,21,29
339,55,41
340,43,43
341,39,51
342,49,57
343,47,77
344,57,85
345,65,107
346,79,117
347,99,131
348,107,143
349,123,149
350,123,145
351,127,141
352,109,133
353,101,115
354,85,89
355,55,65
356,23,41
357,-5,19
358,-21,-5
359,-27,-11
360,-29,-13
361,-31,-13
362,-45,-17
363,-43,-23
364,-51,-23
365,-49,-21
366,-45,-21
367,-41,-19
368,-37,-19
369,-49,-19
370,-41,-19
371,-61,-19
372,-49,-17
373,-49,-23
374,-31,-15
375,-41,-29
376,-43,-33
377,-21,-25
378,-39,-25
379,-49,-25
380,-41,-25
381,-29,-25
382,-19,-21
383,-33,-17
384,-27,-13
385,-23,-9
386,-7,-7
387,7,-1
388,-7,1
389,-9,-19
390,-5,-31
391,-29,-33
392,-49,-29
393,-71,-41
394,-55,-37
395,-47,-47
396,-59,-49
397,-91,-47
398,-67,-45
399,-89,-41
400,-91,-43
401,-63,-41
402,-47,-43
403,-49,-47
404,-37,-47
405,-71,-41
406,-105,-33
407,-57,-5
408,121,-1
409,303,21
410,165,-39
411,-93,-261
412,-199,-397
413,-199,-437
414,-111,-365
415,-69,-225
416,-49,-99
417,-31,-45
418,-37,-5
419,-39,-1
420,-37,-5
421,-21,7
422,-33,9
423,-45,19
424,-27,23
425,-13,21
426,-17,33
427,-31,37
428,23,49
429,29,29
430,23,57
431,27,57
432,35,45
433,45,65
434,59,89
435,75,99
436,87,105
437,95,115
438,95,113
439,101,107
440,105,137
441,85,93
442,61,61
443,33,61
444,15,27
445,-3,13
446,-25,5
447,-29,-9
448,-61,-17
449,-71,-17
450,-47,-9
451,-61,-11
452,-49,-11
453,-53,-11
454,-45,-23
455,-67,-33
456,-65,-23
457,-67,-23
458,-73,-13
459,-51,-9
460,-45,-13
461,-55,-9
462,-71,-13
463,-107,-11
464,-41,-5
465,-35,-1
466,-61,-7
467,-39,-29
468,-33,-27
469,-25,-27
470,-21,-17
471,-27,-29
472,-13,-23
473,-7,-17
474,-11,-9
475,-1,-1
476,9,-1
477,9,-1
478,-3,-39
479,9,-27
480,-11,-21
481,-35,-35
482,-39,-37
483,-55,-29
484,-49,-49
485,-55,-43
486,-63,-29
487,-67,-25
488,-61,-39
489,-47,-37
490,-55,-39
491,-61,-39
492,-77,-33
493,-59,-27
494,-105,-25
495,-167,-15
496,-43,15
497,199,33
498,317,21
499,59,-59
500,-185,-269
501,-215,-387
502,-183,-401
503,-71,-315
504,-19,-161
505,-39,-45
506,-19,-15
507,-23,-5
508,-7,-5
509,-11,-3
510,-21,1
511,-3,21
512,-19,5
513,-15,15
514,-3,23
515,3,11
516,5,13
517,-5,35
518,15,43
519,9,47
520,31,49
521,33,75
522,29,75
523,41,97
524,61,89
525,51,95
526,67,113
527,91,109
528,71,107
529,43,99
530,19,83
531,21,49
532,-1,39
533,-17,25
534,-33,-7
535,-35,-21
536,-35,-29
537,-33,-31
538,-39,-39
539,-31,-45
540,-25,-43
541,-29,-45
542,-39,-51
543,-37,-57
544,-43,-53
545,-37,-59
546,-27,-51
547,-35,-59
548,-35,-57
549,-25,-65
550,-27,-55
551,-35,-55
552,-37,-57
553,-39,-55
554,-31,-47
555,-29,-49
556,-39,-49
557,-39,-41
558,-27,-37
559,-35,-27
560,-37,-23
561,-29,-17
562,-11,-7
563,-21,-1
564,-43,-7
565,-39,-29
566,-3,-27
567,-41,-21
568,-45,-37
569,-51,-49
570,-93,-45
571,-61,-51
572,-43,-49
573,-21,-45
574,-43,-55
575,-43,-41
576,-43,-49
577,-43,-61
578,-41,-63
579,-35,-67
580,-47,-61
581,-73,-61
582,-101,-43
583,1,-9
584,223,-5
585,307,-1
586,71,-109
587,-139,-323
588,-205,-419
589,-185,-413
590,-83,-319
591,-61,-153
592,-45,-61
593,-45,-19
594,-39,-1
595,-39,7
596,-41,11
597,-31,17
598,-7,25
599,-25,17
600,-29,29
601,-17,37
602,-5,41
603,1,45
604,5,51
605,15,57
606,25,63
607,27,85
608,39,85
609,53,93
610,71,109
611,89,95
612,97,99
613,103,105
614,107,109
615,113,99
616,97,93
617,73,79
618,53,67
619,23,49
620,-3,29
621,-23,15
622,-35,-5
623,-43,-11
624,-53,-15
625,-39,-27
626,-41,-25
627,-59,-23
628,-55,-23
629,-53,-25
630,-55,-21
631,-55,-23
632,-55,-23
633,-45,-23
634,-49,-23
635,-51,-25
636,-53,-23
637,-59,-17
638,-49,-13
639,-37,-19
640,-49,-21
641,-41,-15
642,-35,-17
643,-37,-9
644,-23,-11
645,-21,-3
646,-17,-3
647,1,-1
648,3,7
649,-11,7
650,-19,-13
651,1,-31
652,-21,-21
653,-37,-21
654,-57,-23
655,-55,-33
656,-53,-33
657,-53,-35
658,-55,-31
659,-53,-35
660,-59,-35
661,-61,-35
662,-57,-31
663,-53,-31
664,-57,-33
665,-53,-33
666,-37,-33
667,-99,-23
668,-105,-1
669,49,15
670,289,29
671,259,1
672,-49,-197
673,-203,-353
674,-235,-419
675,-161,-375
676,-67,-241
677,-39,-89
678,-31,-21
679,-33,-1
680,-35,13
681,-25,23
682,-17,27
683,-21,29
684,-19,27
685,-13,41
686,-5,45
687,-7,47
688,1,45
689,7,51
690,17,59
691,23,65
692,29,69
693,39,81
694,55,89
695,69,103
696,83,107
697,101,111
698,119,115
699,125,117
700,121,107
701,119,109
702,105,89
703,75,71
704,43,49
705,25,33
706,-1,19
707,-11,-1
708,-21,-7
709,-27,-13
710,-31,-17
711,-35,-15
712,-31,-21
713,-35,-23
714,-35,-21
715,-37,-29
716,-37,-29
717,-23,-19
718,-31,-21
719,-35,-25
720,-37,-21
721,-33,-19
722,-31,-21
723,-21,-21
724,-31,-19
725,-25,-17
726,-23,-17
727,-25,-17
728,-19,-19
729,-7,-9
730,-5,5
731,-5,3
732,9,-1
733,11,5
734,5,-5
735,1,-21
736,9,-23
737,9,-15
738,-19,-17
739,-39,-27
740,-37,-35
741,-35,-31
742,-35,-33
743,-39,-31
744,-39,-37
745,-27,-33
746,-31,-27
747,-43,-29
748,-39,-31
749,-35,-33
750,-31,-27
751,-43,-27
752,-83,-17
753,-29,29
754,179,39
755,391,11
756,287,-45
757,-123,-211
758,-273,-333
759,-261,-369
760,-143,-297
761,-69,-161
762,-37,-47
763,-27,-7
764,-25,3
765,-19,11
766,-15,13
767,-11,19
768,-11,17
769,-5,21
770,-1,23
771,3,21
772,9,25
773,7,43
774,17,33
775,27,35
776,35,53
777,43,45
778,51,57
779,69,71
780,91,79
781,97,87
782,117,101
783,127,101
784,127,101
785,129,99
786,123,91
787,101,77
788,79,57
789,55,39
790,17,23
791,-17,5
792,-27,-9
793,-33,-17
794,-41,-23
795,-45,-25
796,-33,-29
797,-41,-27
798,-47,-29
799,-41,-19
800,-47,-35
801,-45,-31
802,-37,-29
803,-51,-25
804,-35,-27
805,-49,-27
806,-39,-27
807,-43,-23
808,-41,-27
809,-41,-25
810,-35,-21
811,-41,-21
812,-15,-21
813,-13,-5
814,-19,-7
815,-5,5
816,9,5
817,3,1
818,-15,-11
819,1,-25
820,9,-25
821,-7,-21
822,-39,-21
823,-53,-27
824,-51,-29
825,-43,-25
826,-53,-35
827,-59,-39
828,-47,-35
829,-47,-35
830,-47,-29
831,-51,-33
832,-47,-41
833,-49,-31
834,-39,-27
835,-53,-27
836,-103,-11
837,-49,37
838,155,49
839,397,17
840,351,-35
841,-55,-217
842,-267,-339
843,-291,-385
844,-149,-299
845,-69,-139
846,-47,-33
847,-41,-3
848,-37,1
849,-25,5
850,-21,7
851,-17,17
852,-23,13
853,5,17
854,-3,19
855,-15,17
856,-9,25
857,7,29
858,9,35
859,15,39
860,23,55
861,37,51
862,51,69
863,59,75
864,71,87
865,87,93
866,121,103
867,99,107
868,127,111
869,123,105
870,121,101
871,99,83
872,73,65
873,79,39
874,13,17
875,-19,9
876,-29,-9
877,-19,-17
878,-43,-23
879,-49,-27
880,-47,-21
881,-49,-33
882,-47,-31
883,-47,-33
884,-49,-33
885,-43,-31
886,-45,-29
887,-47,-31
888,-43,-33
889,-45,-27
890,-45,-27
891,-45,-27
892,-47,-27
893,-43,-29
894,-45,-27
895,-41,-25
896,-35,-29
897,-31,-23
898,-17,-13
899,-25,-7
900,-21,-3
901,1,-3
902,3,1
903,-11,-7
904,-15,-33
905,-7,-33
906,-17,-23
907,-29,-27
908,-49,-23
909,-49,-45
910,-47,-37
911,-47,-43
912,-57,-43
913,-55,-35
914,-49,-37
915,-49,-43
916,-53,-43
917,-43,-35
918,-59,-39
919,-41,-37
920,-45,-35
921,-91,-23
922,-93,7
923,45,43
924,309,33
925,395,-19
926,93,-167
927,-231,-323
928,-287,-401
929,-195,-333
930,-91,-197
931,-53,-63
932,-43,-15
933,-35,1
934,-23,5
935,-25,7
936,-23,9
937,-21,13
938,-13,15
939,-11,27
940,-11,19
941,-3,13
942,3,31
943,5,29
944,17,29
945,19,37
946,29,53
947,43,61
948,51,69
949,67,85
950,89,97
951,101,103
952,105,105
953,117,107
954,125,113
955,119,103
956,109,83
957,89,73
958,55,55
959,23,29
960,5,3
961,-25,-3
962,-33,-17
963,-35,-21
964,-45,-27
965,-47,-37
966,-45,-29
967,-43,-41
968,-43,-39
969,-45,-33
970,-45,-31
971,-41,-35
972,-45,-35
973,-43,-31
974,-43,-31
975,-41,-33
976,-47,-27
977,-39,-31
978,-43,-25
979,-43,-33
980,-43,-37
981,-37,-33
982,-39,-27
983,-37,-29
984,-39,-25
985,-27,-27
986,-23,-19
987,-17,-13
988,-19,-9
989,-3,-13
990,-1,-11
991,-13,-23
992,-11,-27
993,-5,-33
994,-21,-35
995,-45,-39
996,-53,-45
997,-51,-43
998,-49,-45
999,-53,-43
1000,-51,-45
1001,-49,-41
1002,-49,-41
1003,-51,-39
1004,-51,-41
1005,-47,-37
1006,-47,-39
1007,-43,-41
1008,-49,-37
1009,-95,-29
1010,-65,19
1011,119,37
1012,371,19
1013,371,-33
1014,-19,-213
1015,-253,-365
1016,-269,-403
1017,-141,-299
1018,-69,-151
1019,-39,-45
1020,-29,-19
1021,-23,-3
1022,-21,5
1023,-17,7
1024,-17,3
1025,-7,5
1026,-7,13
1027,-5,15
1028,1,21
1029,7,21
1030,9,27
1031,17,31
1032,23,33
1033,29,41
1034,41,51
1035,53,61
1036,65,79
1037,81,83
1038,99,95
1039,113,103
1040,121,111
1041,129,107
1042,131,107
1043,129,95
1044,111,85
1045,89,61
1046,57,41
1047,31,17
1048,3,1
1049,-11,-17
1050,-21,-21
1051,-25,-31
1052,-31,-31
1053,-35,-33
1054,-35,-33
1055,-37,-35
1056,-37,-39
1057,-37,-41
1058,-37,-35
1059,-31,-35
1060,-35,-39
1061,-35,-31
1062,-29,-29
1063,-31,-37
1064,-31,-39
1065,-33,-33
1066,-31,-31
1067,-31,-31
1068,-31,-33
1069,-25,-27
1070,-29,-23
1071,-27,-31
1072,-31,-33
1073,-31,-37
1074,-25,-35
1075,-27,-33
1076,-29,-37
1077,-23,-37
1078,-21,-33
1079,-15,-29
1080,-11,-17
1081,-1,-15
1082,7,-19
1083,9,-21
1084,-3,-29
1085,7,-39
1086,7,-31
1087,-5,-31
1088,-33,-39
1089,-33,-45
1090,-41,-41
1091,-41,-41
1092,-39,-51
1093,-33,-37
1094,-35,-47
1095,-39,-47
1096,-37,-49
1097,-37,-45
1098,-35,-41
1099,-33,-43
1100,-35,-41
1101,-65,-33
1102,-83,-5
1103,29,41
1104,289,33
1105,413,-11
1106,185,-159
1107,-177,-317
1108,-279,-413
1109,-193,-369
1110,-77,-231
1111,-37,-69
1112,-29,-13
1113,-19,-7
1114,-15,-3
1115,-13,9
1116,-13,11
1117,-5,11
1118,-5,13
1119,1,21
1120,3,23
1121,7,25
1122,15,33
1123,13,31
1124,21,33
1125,29,41
1126,39,57
1127,47,57
1128,61,69
1129,79,81
1130,87,95
1131,99,101
1132,117,111
1133,129,115
1134,133,117
1135,133,107
1136,127,97
1137,103,85
1138,81,61
1139,49,37
1140,21,13
1141,7,5
1142,-7,-17
1143,-21,-23
1144,-29,-27
1145,-29,-29
1146,-33,-27
1147,-33,-33
1148,-31,-31
1149,-31,-33
1150,-33,-27
1151,-33,-33
1152,-33,-35
1153,-35,-27
1154,-35,-29
1155,-35,-29
1156,-31,-27
1157,-33,-21
1158,-31,-23
1159,-35,-25
1160,-33,-23
1161,-29,-23
1162,-29,-27
1163,-31,-27
1164,-35,-25
1165,-33,-29
1166,-31,-27
1167,-33,-25
1168,-35,-29
1169,-29,-29
1170,-31,-29
1171,-35,-31
1172,-23,-27
1173,-13,-19
1174,-15,-15
1175,-7,-15
1176,-1,-5
1177,-3,-11
1178,-5,-29
1179,5,-33
1180,-13,-19
1181,-35,-29
1182,-43,-37
1183,-53,-39
1184,-47,-41
1185,-47,-39
1186,-49,-37
1187,-47,-37
1188,-51,-43
1189,-47,-41
1190,-41,-37
1191,-45,-37
1192,-41,-37
1193,-43,-33
1194,-67,-31
1195,-101,-13
1196,-27,37
1197,191,41
1198,389,15
1199,271,-81
1200,-131,-277
1201,-279,-399
1202,-235,-389
1203,-101,-281
1204,-53,-107
1205,-39,-21
1206,-33,1
1207,-27,15
1208,-19,11
1209,-21,21
1210,-19,23
1211,-11,21
1212,-9,25
1213,-9,29
1214,-1,33
1215,-1,33
1216,5,37
1217,11,41
1218,17,51
1219,23,57
1220,31,61
1221,35,73
1222,55,81
1223,67,97
1224,73,105
1225,93,111
1226,107,123
1227,117,127
1228,123,117
1229,121,115
1230,111,109
1231,87,89
1232,57,65
1233,31,37
1234,5,17
1235,-17,1
1236,-33,-11
1237,-35,-19
1238,-41,-21
1239,-43,-25
1240,-47,-25
1241,-47,-27
1242,-45,-25
1243,-49,-27
1244,-51,-27
1245,-47,-29
1246,-45,-25
1247,-47,-19
1248,-43,-25
1249,-41,-23
1250,-45,-17
1251,-47,-21
1252,-43,-25
1253,-43,-19
1254,-41,-25
1255,-47,-23
1256,-39,-25
1257,-39,-29
1258,-41,-27
1259,-43,-25
1260,-43,-27
1261,-45,-27
1262,-41,-25
1263,-37,-31
1264,-45,-25
1265,-35,-27
1266,-27,-19
1267,-25,-17
1268,-21,-13
1269,-5,-9
1270,-5,-13
1271,-15,-17
1272,-3,-37
1273,-11,-25
1274,-23,-25
1275,-53,-33
1276,-55,-43
1277,-53,-37
1278,-53,-43
1279,-49,-45
