,0,1
0,-39,-19
1,-35,-17
2,-35,-19
3,-37,-19
4,-33,-17
5,-37,-21
6,-39,-21
7,-43,-25
8,-21,-11
9,-17,-11
10,-11,-15
11,-3,-23
12,-23,-25
13,-23,-17
14,-27,-23
15,-29,-25
16,-35,-17
17,-31,-17
18,-33,-19
19,-35,-19
20,-31,-19
21,-31,-17
22,-31,-17
23,-33,-19
24,-31,-17
25,-27,-17
26,-31,-17
27,-31,-19
28,-27,-17
29,-25,-17
30,-21,-13
31,-19,-5
32,-73,25
33,-105,35
34,-3,-69
35,285,-231
36,471,-121
37,553,-101
38,333,-95
39,37,-15
40,-5,9
41,-3,11
42,-19,3
43,-29,1
44,-31,1
45,-33,3
46,-33,3
47,-35,1
48,-33,1
49,-31,3
50,-33,3
51,-31,1
52,-29,-1
53,-29,-1
54,-29,1
55,-27,-1
56,-25,-1
57,-17,1
58,-19,-1
59,-15,-5
60,-11,-3
61,-5,-1
62,3,1
63,5,-1
64,15,1
65,27,1
66,37,3
67,47,-1
68,59,1
69,71,1
70,81,1
71,93,1
72,105,1
73,119,5
74,119,5
75,109,5
76,93,5
77,69,5
78,45,1
79,15,-5
80,-7,-7
81,-21,-7
82,-31,-11
83,-39,-17
84,-41,-15
85,-41,-15
86,-43,-13
87,-45,-15
88,-43,-13
89,-39,-11
90,-41,-11
91,-43,-13
92,-41,-13
93,-37,-13
94,-37,-11
95,-39,-11
96,-39,-11
97,-35,-7
98,-39,-9
99,-43,-13
100,-39,-13
101,-37,-11
102,-39,-11
103,-41,-15
104,-39,-15
105,-37,-15
106,-39,-17
107,-45,-19
108,-43,-19
109,-43,-19
110,-43,-19
111,-43,-21
112,-43,-19
113,-43,-19
114,-43,-19
115,-43,-25
116,-41,-21
117,-41,-21
118,-41,-21
119,-41,-23
120,-41,-23
121,-37,-21
122,-41,-21
123,-41,-25
124,-39,-21
125,-37,-25
126,-35,-23
127,-33,-19
128,-21,-15
129,-19,-17
130,-11,-13
131,-1,-25
132,-19,-27
133,-25,-25
134,-29,-27
135,-37,-27
136,-35,-25
137,-35,-25
138,-41,-27
139,-39,-29
140,-39,-29
141,-37,-29
142,-37,-27
143,-39,-27
144,-37,-27
145,-33,-25
146,-35,-27
147,-35,-29
148,-33,-25
149,-27,-27
150,-29,-5
151,-93,9
152,-113,17
153,67,-123
154,361,-193
155,525,-109
156,475,-119
157,95,-49
158,-19,-9
159,-7,-5
160,-17,-11
161,-25,-9
162,-33,-11
163,-35,-13
164,-37,-11
165,-37,-11
166,-39,-13
167,-39,-15
168,-39,-13
169,-35,-11
170,-37,-13
171,-37,-15
172,-35,-15
173,-33,-13
174,-29,-9
175,-29,-15
176,-25,-13
177,-21,-11
178,-19,-13
179,-15,-13
180,-9,-11
181,-3,-11
182,3,-11
183,13,-11
184,25,-11
185,37,-9
186,49,-11
187,61,-13
188,75,-11
189,85,-9
190,95,-9
191,103,-9
192,107,-7
193,103,-3
194,85,-3
195,61,-5
196,37,-5
197,11,-9
198,-11,-11
199,-29,-17
200,-39,-17
201,-43,-15
202,-49,-19
203,-51,-21
204,-51,-19
205,-51,-19
206,-51,-17
207,-53,-21
208,-51,-19
209,-47,-17
210,-49,-17
211,-49,-19
212,-49,-19
213,-47,-17
214,-45,-17
215,-47,-17
216,-47,-17
217,-41,-13
218,-47,-17
219,-47,-19
220,-45,-17
221,-47,-17
222,-47,-19
223,-51,-21
224,-49,-21
225,-47,-19
226,-51,-23
227,-53,-25
228,-51,-25
229,-51,-25
230,-51,-23
231,-55,-25
232,-51,-27
233,-49,-23
234,-51,-25
235,-53,-25
236,-49,-25
237,-49,-27
238,-49,-25
239,-49,-27
240,-47,-27
241,-47,-25
242,-47,-27
243,-49,-29
244,-47,-25
245,-45,-25
246,-45,-25
247,-41,-21
248,-31,-17
249,-29,-19
250,-23,-15
251,-7,-23
252,-25,-31
253,-37,-27
254,-37,-29
255,-37,-31
256,-45,-25
257,-45,-27
258,-47,-29
259,-47,-31
260,-45,-29
261,-43,-27
262,-43,-25
263,-43,-27
264,-43,-27
265,-35,-23
266,-37,-25
267,-37,-23
268,-69,23
269,-117,33
270,-79,-29
271,195,-241
272,423,-193
273,525,-107
274,473,-123
275,133,-53
276,-27,-7
277,-19,-3
278,-29,-5
279,-41,-7
280,-45,-7
281,-45,-3
282,-51,-7
283,-51,-7
284,-43,-3
285,-49,-7
286,-43,-3
287,-37,-1
288,-45,-5
289,-39,-1
290,-43,-9
291,-55,-13
292,-47,-11
293,-37,-5
294,-35,-7
295,-35,-7
296,-29,-3
297,-19,-1
298,-13,3
299,-5,1
300,-5,-3
301,-3,-5
302,9,1
303,25,3
304,39,3
305,55,5
306,65,5
307,75,1
308,89,7
309,97,7
310,101,7
311,93,5
312,75,5
313,53,3
314,21,-3
315,-5,-9
316,-23,-13
317,-35,-13
318,-43,-15
319,-49,-17
320,-49,-17
321,-53,-19
322,-55,-19
323,-55,-19
324,-53,-17
325,-53,-17
326,-53,-17
327,-53,-17
328,-53,-15
329,-49,-13
330,-51,-13
331,-51,-17
332,-47,-15
333,-49,-13
334,-47,-13
335,-49,-17
336,-49,-15
337,-47,-15
338,-49,-17
339,-51,-19
340,-49,-19
341,-49,-19
342,-49,-19
343,-49,-21
344,-51,-19
345,-49,-19
346,-51,-21
347,-53,-23
348,-51,-21
349,-51,-21
350,-51,-21
351,-51,-23
352,-49,-23
353,-47,-21
354,-49,-23
355,-51,-23
356,-47,-21
357,-49,-21
358,-47,-21
359,-49,-23
360,-47,-23
361,-47,-21
362,-49,-23
363,-47,-23
364,-45,-21
365,-45,-23
366,-43,-21
367,-47,-23
368,-43,-23
369,-39,-19
370,-43,-21
371,-41,-23
372,-43,-25
373,-39,-23
374,-39,-19
375,-27,-11
376,-27,-17
377,-19,-9
378,-1,-15
379,-19,-29
380,-29,-21
381,-33,-25
382,-29,-21
383,-39,-23
384,-41,-23
385,-39,-21
386,-41,-21
387,-39,-23
388,-39,-23
389,-37,-23
390,-37,-21
391,-39,-23
392,-37,-21
393,-33,-19
394,-29,-15
395,-59,23
396,-123,29
397,-85,-25
398,207,-245
399,441,-167
400,543,-107
401,411,-113
402,87,-35
403,-23,-3
404,-11,1
405,-21,-1
406,-33,-1
407,-41,-1
408,-45,1
409,-41,3
410,-45,1
411,-49,-1
412,-45,1
413,-43,-1
414,-43,1
415,-43,-1
416,-41,-1
417,-35,3
418,-37,1
419,-39,-1
420,-33,-1
421,-31,1
422,-29,3
423,-27,1
424,-21,3
425,-11,7
426,-11,5
427,-3,5
428,5,7
429,13,7
430,25,9
431,37,9
432,49,9
433,63,11
434,73,11
435,83,11
436,93,11
437,103,13
438,105,15
439,89,11
440,69,11
441,43,9
442,15,1
443,-11,-3
444,-25,-7
445,-37,-9
446,-43,-11
447,-49,-11
448,-49,-13
449,-47,-11
450,-51,-13
451,-51,-15
452,-51,-15
453,-49,-13
454,-49,-13
455,-51,-13
456,-49,-13
457,-43,-9
458,-47,-11
459,-47,-11
460,-45,-11
461,-47,-9
462,-47,-9
463,-47,-13
464,-47,-11
465,-45,-9
466,-47,-11
467,-51,-15
468,-47,-13
469,-49,-15
470,-47,-15
471,-51,-19
472,-49,-17
473,-49,-15
474,-51,-19
475,-53,-19
476,-51,-19
477,-51,-19
478,-49,-17
479,-51,-21
480,-51,-19
481,-49,-19
482,-49,-21
483,-51,-21
484,-49,-21
485,-49,-19
486,-49,-21
487,-49,-21
488,-49,-23
489,-45,-21
490,-45,-21
491,-49,-23
492,-47,-21
493,-47,-21
494,-47,-19
495,-47,-21
496,-47,-19
497,-45,-19
498,-45,-21
499,-43,-21
500,-37,-13
501,-27,-13
502,-29,-15
503,-13,-11
504,-7,-21
505,-25,-21
506,-31,-21
507,-37,-27
508,-39,-21
509,-43,-21
510,-43,-23
511,-45,-21
512,-43,-21
513,-41,-19
514,-41,-17
515,-45,-23
516,-43,-21
517,-39,-21
518,-41,-19
519,-39,-21
520,-33,-17
521,-55,21
522,-125,23
523,-93,-13
524,175,-209
525,411,-179
526,525,-99
527,453,-123
528,111,-47
529,-21,-1
530,-17,5
531,-25,-3
532,-35,-3
533,-41,-1
534,-43,-1
535,-47,-3
536,-47,-1
537,-45,-1
538,-45,-1
539,-45,-3
540,-43,-3
541,-43,-1
542,-41,-1
543,-41,-5
544,-39,-3
545,-35,-1
546,-35,-1
547,-33,-3
548,-27,-3
549,-21,-3
550,-17,-1
551,-15,-3
552,-7,-3
553,1,1
554,9,1
555,17,1
556,31,1
557,43,1
558,59,3
559,69,-1
560,81,1
561,91,5
562,103,5
563,107,1
564,103,7
565,89,7
566,65,7
567,37,1
568,11,-3
569,-7,-3
570,-23,-7
571,-37,-11
572,-43,-11
573,-45,-11
574,-45,-13
575,-47,-15
576,-49,-13
577,-45,-11
578,-45,-13
579,-45,-13
580,-45,-11
581,-43,-11
582,-43,-11
583,-43,-11
584,-43,-13
585,-41,-9
586,-41,-9
587,-41,-11
588,-39,-9
589,-39,-11
590,-41,-11
591,-41,-15
592,-43,-13
593,-39,-11
594,-41,-15
595,-43,-17
596,-43,-17
597,-43,-15
598,-45,-15
599,-47,-19
600,-43,-19
601,-39,-17
602,-45,-17
603,-47,-21
604,-43,-19
605,-43,-19
606,-43,-17
607,-47,-21
608,-43,-19
609,-39,-17
610,-39,-21
611,-43,-21
612,-41,-21
613,-41,-19
614,-41,-17
615,-41,-21
616,-41,-21
617,-35,-17
618,-37,-19
619,-39,-21
620,-37,-21
621,-37,-21
622,-35,-19
623,-33,-17
624,-19,-15
625,-19,-15
626,-11,-9
627,1,-19
628,-15,-27
629,-21,-21
630,-25,-23
631,-33,-21
632,-33,-21
633,-31,-23
634,-35,-23
635,-35,-23
636,-33,-21
637,-33,-23
638,-31,-21
639,-35,-23
640,-33,-25
641,-29,-21
642,-31,-23
643,-31,-23
644,-27,-23
645,-21,-15
646,-59,19
647,-111,21
648,-47,-29
649,261,-209
650,467,-129
651,551,-103
652,379,-109
653,61,-37
654,-9,-3
655,1,1
656,-11,-7
657,-23,-5
658,-31,-5
659,-33,-7
660,-35,-7
661,-35,-9
662,-35,-5
663,-37,-7
664,-33,-7
665,-31,-5
666,-31,-7
667,-31,-7
668,-29,-11
669,-25,-9
670,-23,-7
671,-23,-9
672,-19,-9
673,-11,-5
674,-9,-5
675,-7,-9
676,1,-7
677,7,-5
678,17,1
679,23,-5
680,35,-5
681,51,-1
682,61,-3
683,73,-5
684,87,-3
685,99,-1
686,109,-1
687,117,-1
688,113,1
689,103,5
690,79,5
691,51,-1
692,25,-3
693,3,-5
694,-13,-9
695,-25,-13
696,-31,-13
697,-33,-13
698,-37,-15
699,-39,-17
700,-39,-13
701,-37,-13
702,-35,-13
703,-37,-13
704,-37,-13
705,-33,-11
706,-37,-9
707,-37,-13
708,-31,-11
709,-31,-11
710,-31,-9
711,-33,-11
712,-33,-11
713,-27,-9
714,-31,-11
715,-33,-11
716,-33,-13
717,-31,-13
718,-33,-13
719,-35,-17
720,-35,-17
721,-33,-15
722,-35,-17
723,-37,-21
724,-37,-19
725,-37,-17
726,-35,-17
727,-37,-21
728,-37,-21
729,-35,-17
730,-35,-19
731,-37,-21
732,-35,-21
733,-35,-21
734,-35,-19
735,-35,-21
736,-33,-21
737,-31,-17
738,-35,-21
739,-35,-21
740,-33,-21
741,-31,-21
742,-33,-21
743,-33,-23
744,-31,-21
745,-27,-17
746,-31,-21
747,-29,-21
748,-29,-19
749,-27,-21
750,-21,-15
751,-13,-13
752,-17,-15
753,-3,-7
754,9,-21
755,-15,-25
756,-17,-21
757,-19,-25
758,-21,-23
759,-29,-21
760,-31,-23
761,-27,-21
762,-27,-21
763,-29,-21
764,-29,-21
765,-27,-19
766,-27,-21
767,-29,-21
768,-29,-21
769,-25,-19
770,-25,-21
771,-25,-23
772,-21,-19
773,-15,-19
774,-33,23
775,-105,31
776,-81,-13
777,185,-235
778,431,-191
779,549,-111
780,415,-107
781,89,-19
782,-1,11
783,-3,5
784,-13,-1
785,-23,3
786,-29,1
787,-35,-1
788,-33,-1
789,-33,1
790,-33,1
791,-35,-1
792,-33,-1
793,-31,1
794,-31,1
795,-31,-3
796,-29,-1
797,-25,-1
798,-23,1
799,-21,-3
800,-17,-1
801,-13,1
802,-9,1
803,-7,1
804,-1,1
805,5,1
806,13,3
807,17,1
808,29,5
809,43,9
810,57,7
811,69,7
812,83,7
813,95,11
814,105,11
815,113,9
816,119,11
817,117,13
818,97,13
819,73,7
820,51,3
821,23,-1
822,1,-3
823,-19,-9
824,-27,-11
825,-31,-7
826,-39,-11
827,-43,-15
828,-41,-13
829,-41,-13
830,-41,-13
831,-41,-15
832,-41,-13
833,-37,-11
834,-39,-9
835,-39,-9
836,-37,-9
837,-35,-9
838,-35,-9
839,-37,-9
840,-35,-11
841,-33,-7
842,-35,-9
843,-37,-11
844,-35,-9
845,-35,-11
846,-35,-11
847,-39,-15
848,-37,-15
849,-35,-11
850,-39,-13
851,-39,-17
852,-37,-17
853,-37,-15
854,-37,-15
855,-41,-17
856,-39,-19
857,-37,-19
858,-39,-19
859,-39,-19
860,-39,-19
861,-39,-17
862,-37,-17
863,-39,-21
864,-37,-19
865,-35,-15
866,-37,-19
867,-39,-21
868,-35,-19
869,-35,-19
870,-37,-17
871,-37,-21
872,-35,-19
873,-31,-17
874,-33,-19
875,-35,-19
876,-33,-19
877,-35,-17
878,-33,-17
879,-33,-19
880,-31,-19
881,-29,-15
882,-29,-17
883,-31,-17
884,-27,-15
885,-27,-19
886,-31,-21
887,-39,-23
888,-19,-9
889,-7,-9
890,-9,-15
891,3,-21
892,-13,-25
893,-19,-19
894,-23,-21
895,-23,-23
896,-31,-17
897,-27,-17
898,-29,-19
899,-29,-19
900,-27,-17
901,-27,-15
902,-25,-15
903,-27,-19
904,-29,-17
905,-25,-13
906,-27,-13
907,-27,-19
908,-25,-15
909,-23,-17
910,-21,-15
911,-17,-15
912,-27,21
913,-99,37
914,-89,5
915,149,-215
916,413,-209
917,529,-101
918,491,-115
919,149,-33
920,-5,9
921,3,17
922,-13,9
923,-27,5
924,-31,5
925,-33,5
926,-35,5
927,-35,1
928,-35,5
929,-33,5
930,-33,5
931,-35,1
932,-31,3
933,-29,3
934,-27,3
935,-27,1
936,-25,1
937,-19,5
938,-19,5
939,-17,3
940,-13,3
941,-7,7
942,-3,7
943,1,5
944,9,7
945,19,9
946,29,11
947,39,11
948,53,13
949,67,13
950,79,13
951,87,13
952,99,15
953,109,17
954,113,17
955,111,15
956,95,13
957,71,13
958,43,7
959,19,1
960,-3,-3
961,-17,-3
962,-31,-7
963,-39,-11
964,-41,-13
965,-41,-9
966,-43,-9
967,-43,-11
968,-43,-11
969,-41,-9
970,-43,-7
971,-43,-11
972,-39,-9
973,-39,-7
974,-39,-7
975,-41,-9
976,-37,-7
977,-37,-5
978,-37,-5
979,-41,-9
980,-39,-9
981,-37,-5
982,-37,-7
983,-41,-11
984,-39,-13
985,-35,-9
986,-41,-13
987,-41,-15
988,-41,-15
989,-41,-13
990,-39,-15
991,-43,-17
992,-41,-15
993,-37,-13
994,-41,-17
995,-43,-17
996,-41,-17
997,-41,-17
998,-43,-17
999,-43,-19
1000,-41,-17
1001,-39,-15
1002,-39,-17
1003,-41,-19
1004,-39,-17
1005,-39,-19
1006,-39,-17
1007,-39,-17
1008,-37,-19
1009,-37,-19
1010,-37,-17
1011,-37,-21
1012,-37,-19
1013,-37,-19
1014,-35,-17
1015,-35,-21
1016,-35,-19
1017,-33,-15
1018,-31,-15
1019,-37,-23
1020,-41,-25
1021,-35,-19
1022,-17,-11
1023,-19,-17
1024,-5,-21
1025,-1,-23
1026,-23,-21
1027,-25,-23
1028,-25,-23
1029,-33,-21
1030,-35,-17
1031,-35,-21
1032,-33,-19
1033,-27,-15
1034,-31,-19
1035,-31,-21
1036,-31,-19
1037,-33,-17
1038,-31,-15
1039,-31,-19
1040,-29,-17
1041,-23,-13
1042,-25,-13
1043,-27,-15
1044,-19,-15
1045,-25,15
1046,-101,27
1047,-87,-9
1048,201,-197
1049,437,-147
1050,547,-93
1051,411,-107
1052,75,-29
1053,-9,9
1054,-1,9
1055,-17,-1
1056,-25,-1
1057,-27,3
1058,-31,1
1059,-37,-1
1060,-35,1
1061,-33,-1
1062,-33,-1
1063,-33,-3
1064,-31,-1
1065,-29,-1
1066,-29,-3
1067,-27,-5
1068,-27,-5
1069,-25,-3
1070,-21,-1
1071,-21,-5
1072,-17,-5
1073,-9,-1
1074,-7,-3
1075,-5,-3
1076,3,-1
1077,9,-1
1078,19,1
1079,29,-1
1080,41,1
1081,57,3
1082,67,1
1083,77,-1
1084,91,3
1085,101,3
1086,111,3
1087,117,3
1088,113,7
1089,103,7
1090,79,5
1091,51,-1
1092,21,-1
1093,-1,-5
1094,-15,-7
1095,-31,-13
1096,-37,-13
1097,-39,-11
1098,-43,-13
1099,-45,-15
1100,-43,-13
1101,-45,-13
1102,-43,-11
1103,-45,-13
1104,-45,-13
1105,-39,-9
1106,-41,-11
1107,-41,-13
1108,-39,-11
1109,-37,-13
1110,-37,-11
1111,-41,-13
1112,-41,-11
1113,-37,-11
1114,-41,-13
1115,-43,-15
1116,-41,-13
1117,-43,-17
1118,-41,-15
1119,-45,-17
1120,-43,-17
1121,-41,-15
1122,-45,-19
1123,-47,-19
1124,-47,-21
1125,-47,-19
1126,-45,-19
1127,-49,-21
1128,-47,-21
1129,-43,-17
1130,-49,-19
1131,-49,-21
1132,-47,-21
1133,-47,-21
1134,-45,-21
1135,-47,-21
1136,-45,-21
1137,-43,-21
1138,-45,-21
1139,-47,-23
1140,-43,-23
1141,-45,-21
1142,-43,-23
1143,-43,-21
1144,-33,-15
1145,-27,-15
1146,-25,-11
1147,-5,-19
1148,-19,-27
1149,-31,-23
1150,-35,-27
1151,-41,-27
1152,-43,-23
1153,-43,-23
1154,-45,-27
1155,-47,-27
1156,-43,-25
1157,-45,-27
1158,-45,-23
1159,-47,-27
1160,-45,-27
1161,-43,-23
1162,-45,-25
1163,-45,-27
1164,-43,-25
1165,-39,-25
1166,-33,-19
1167,-57,15
1168,-123,25
1169,-81,-21
1170,203,-215
1171,435,-149
1172,539,-105
1173,411,-109
1174,71,-31
1175,-27,-3
1176,-21,-1
1177,-29,-5
1178,-41,-5
1179,-49,-9
1180,-51,-9
1181,-51,-9
1182,-51,-7
1183,-53,-11
1184,-51,-9
1185,-47,-7
1186,-49,-9
1187,-49,-11
1188,-47,-9
1189,-47,-9
1190,-43,-9
1191,-45,-11
1192,-39,-9
1193,-35,-7
1194,-33,-9
1195,-29,-11
1196,-23,-9
1197,-19,-7
1198,-13,-5
1199,-7,-5
1200,3,-5
1201,15,-1
1202,25,-3
1203,39,-3
1204,55,-1
1205,65,1
1206,77,1
1207,87,-3
1208,93,3
1209,101,5
1210,93,1
1211,73,1
1212,53,3
1213,25,-3
1214,-1,-7
1215,-23,-13
1216,-39,-13
1217,-49,-15
1218,-57,-17
1219,-61,-19
1220,-61,-19
1221,-63,-19
1222,-61,-17
1223,-61,-19
1224,-63,-17
1225,-59,-17
1226,-61,-17
1227,-61,-17
1228,-59,-17
1229,-57,-15
1230,-55,-15
1231,-57,-17
1232,-57,-15
1233,-53,-11
1234,-55,-13
1235,-57,-17
1236,-55,-15
1237,-55,-17
1238,-55,-15
1239,-57,-17
1240,-57,-19
1241,-57,-17
1242,-59,-17
1243,-59,-21
1244,-59,-21
1245,-59,-21
1246,-59,-19
1247,-61,-21
1248,-59,-23
1249,-59,-21
1250,-61,-23
1251,-61,-23
1252,-59,-23
1253,-61,-25
1254,-57,-23
1255,-61,-25
1256,-59,-25
1257,-55,-21
1258,-59,-23
1259,-59,-25
1260,-57,-25
1261,-55,-25
1262,-55,-23
1263,-59,-25
1264,-55,-23
1265,-49,-21
1266,-55,-23
1267,-55,-27
1268,-51,-23
1269,-53,-23
1270,-53,-23
1271,-55,-25
1272,-53,-25
1273,-47,-23
1274,-51,-23
1275,-51,-25
1276,-49,-23
1277,-41,-15
1278,-31,-13
1279,-35,-19
