,0,1
0,7,-9
1,-11,-27
2,-9,-29
3,-9,-23
4,-17,-21
5,-25,-27
6,-25,-31
7,-21,-29
8,-17,-25
9,-15,-27
10,-21,-25
11,11,-23
12,33,13
13,81,53
14,141,105
15,147,-5
16,-17,-121
17,-175,-201
18,-211,-227
19,-151,-151
20,-89,-95
21,-35,-47
22,-15,-9
23,-9,1
24,-1,3
25,1,1
26,7,1
27,7,3
28,9,7
29,13,7
30,17,7
31,19,11
32,25,15
33,27,15
34,37,17
35,37,21
36,41,25
37,49,29
38,51,29
39,59,35
40,65,41
41,71,43
42,75,45
43,75,47
44,75,47
45,71,47
46,71,43
47,71,43
48,63,43
49,51,35
50,45,27
51,31,19
52,21,9
53,13,-1
54,3,-9
55,-1,-15
56,-3,-17
57,-7,-19
58,-5,-23
59,-9,-19
60,-7,-19
61,-5,-21
62,-7,-21
63,-7,-21
64,-5,-17
65,-5,-21
66,-3,-21
67,-3,-21
68,-1,-19
69,1,-21
70,-3,-23
71,-5,-21
72,-5,-19
73,-7,-23
74,-7,-25
75,-7,-25
76,-9,-23
77,-13,-25
78,-11,-27
79,-13,-27
80,-13,-27
81,-17,-29
82,-13,-29
83,-13,-29
84,-15,-27
85,-11,-27
86,-7,-27
87,3,-19
88,5,-11
89,3,-17
90,19,-19
91,11,-15
92,-3,-23
93,-13,-33
94,-9,-35
95,-13,-29
96,-23,-27
97,-29,-35
98,-27,-37
99,-25,-35
100,-23,-33
101,-21,-33
102,-25,-33
103,13,-21
104,43,21
105,99,87
106,193,59
107,91,-101
108,-133,-175
109,-233,-263
110,-203,-201
111,-127,-125
112,-57,-71
113,-31,-19
114,-19,-9
115,-15,-7
116,-11,-5
117,-9,-5
118,-9,-3
119,-3,-3
120,-1,3
121,1,5
122,5,5
123,7,7
124,13,11
125,17,13
126,17,15
127,25,19
128,29,25
129,33,29
130,41,31
131,47,39
132,53,45
133,57,47
134,55,49
135,63,49
136,61,53
137,55,51
138,57,47
139,47,47
140,41,41
141,31,31
142,15,21
143,7,7
144,-1,-1
145,-11,-9
146,-15,-17
147,-21,-19
148,-25,-21
149,-29,-27
150,-29,-29
151,-27,-29
152,-27,-25
153,-29,-27
154,-25,-27
155,-25,-25
156,-21,-25
157,-21,-23
158,-23,-25
159,-21,-25
160,-19,-23
161,-21,-25
162,-17,-25
163,-21,-25
164,-21,-27
165,-21,-27
166,-25,-29
167,-23,-31
168,-23,-29
169,-25,-29
170,-21,-31
171,-25,-31
172,-27,-31
173,-25,-33
174,-27,-35
175,-27,-33
176,-27,-31
177,-17,-29
178,-21,-27
179,-11,-27
180,-3,-17
181,-5,-15
182,-3,-21
183,11,-17
184,3,-15
185,-9,-29
186,-17,-35
187,-13,-31
188,-19,-27
189,-31,-33
190,-35,-41
191,-31,-41
192,-27,-35
193,-29,-35
194,-27,-35
195,-13,-33
196,17,-9
197,79,37
198,129,111
199,207,-9
200,61,-155
201,-181,-215
202,-263,-275
203,-195,-193
204,-105,-113
205,-41,-45
206,-25,-7
207,-17,-1
208,-15,-3
209,-13,-3
210,-9,-1
211,-7,1
212,-7,5
213,-3,5
214,-1,7
215,5,11
216,7,13
217,11,15
218,15,17
219,21,23
220,25,29
221,31,29
222,33,35
223,41,41
224,47,51
225,53,53
226,57,55
227,63,57
228,59,59
229,59,59
230,57,57
231,53,55
232,47,53
233,37,45
234,27,33
235,13,21
236,5,11
237,-5,-1
238,-13,-11
239,-17,-15
240,-21,-15
241,-23,-21
242,-23,-21
243,-27,-21
244,-27,-21
245,-25,-23
246,-25,-25
247,-25,-23
248,-21,-19
249,-23,-19
250,-17,-19
251,-19,-17
252,-17,-15
253,-19,-19
254,-17,-21
255,-19,-19
256,-17,-19
257,-19,-21
258,-19,-23
259,-23,-23
260,-23,-23
261,-23,-25
262,-27,-27
263,-29,-29
264,-27,-27
265,-29,-27
266,-27,-29
267,-25,-25
268,-25,-21
269,-19,-25
270,-9,-21
271,-5,-13
272,-11,-13
273,-1,-17
274,5,-15
275,-11,-19
276,-23,-33
277,-23,-33
278,-25,-31
279,-35,-31
280,-41,-33
281,-39,-37
282,-37,-35
283,-35,-35
284,-33,-33
285,-33,-33
286,3,-23
287,49,25
288,105,103
289,183,19
290,49,-161
291,-181,-221
292,-269,-277
293,-215,-203
294,-127,-125
295,-53,-53
296,-33,-5
297,-27,1
298,-25,-3
299,-23,-3
300,-21,1
301,-19,-1
302,-15,-1
303,-15,3
304,-9,7
305,-9,9
306,1,9
307,1,13
308,5,19
309,11,19
310,11,23
311,21,25
312,27,35
313,31,39
314,37,45
315,45,49
316,51,57
317,53,57
318,51,57
319,51,57
320,51,61
321,45,57
322,43,55
323,35,49
324,23,41
325,11,29
326,-1,13
327,-9,1
328,-19,-5
329,-27,-13
330,-27,-17
331,-29,-19
332,-33,-19
333,-33,-23
334,-37,-25
335,-33,-25
336,-31,-21
337,-33,-21
338,-29,-21
339,-31,-21
340,-27,-17
341,-25,-19
342,-27,-19
343,-25,-21
344,-23,-19
345,-25,-19
346,-21,-21
347,-25,-19
348,-25,-21
349,-27,-21
350,-29,-25
351,-27,-25
352,-25,-23
353,-29,-23
354,-25,-27
355,-27,-25
356,-27,-25
357,-23,-23
358,-25,-23
359,-15,-23
360,-7,-15
361,-7,-9
362,-7,-11
363,7,-13
364,3,-9
365,-13,-19
366,-25,-35
367,-21,-31
368,-25,-27
369,-39,-29
370,-41,-37
371,-39,-35
372,-37,-33
373,-33,-33
374,-37,-33
375,-27,-31
376,7,-13
377,53,31
378,103,105
379,161,7
380,11,-165
381,-209,-225
382,-261,-271
383,-187,-177
384,-107,-105
385,-47,-37
386,-29,-5
387,-23,-1
388,-23,-1
389,-23,-1
390,-19,-3
391,-15,1
392,-13,5
393,-9,3
394,-7,7
395,-1,9
396,-1,13
397,7,17
398,9,19
399,13,21
400,17,29
401,25,31
402,33,37
403,37,41
404,45,51
405,47,49
406,53,53
407,55,57
408,55,59
409,55,59
410,51,57
411,47,53
412,41,51
413,27,41
414,17,33
415,7,21
416,-3,9
417,-9,-1
418,-17,-9
419,-23,-11
420,-25,-15
421,-27,-19
422,-29,-21
423,-29,-23
424,-29,-21
425,-27,-21
426,-25,-23
427,-27,-19
428,-25,-17
429,-23,-19
430,-23,-17
431,-19,-17
432,-19,-15
433,-21,-19
434,-17,-21
435,-21,-21
436,-21,-19
437,-23,-23
438,-25,-23
439,-25,-23
440,-25,-23
441,-29,-27
442,-27,-27
443,-27,-27
444,-27,-25
445,-29,-29
446,-29,-31
447,-31,-29
448,-27,-27
449,-27,-29
450,-23,-29
451,-23,-25
452,-17,-23
453,-9,-23
454,-7,-13
455,-11,-13
456,5,-17
457,9,-13
458,-11,-17
459,-23,-33
460,-23,-33
461,-23,-29
462,-35,-29
463,-39,-35
464,-41,-37
465,-37,-35
466,-35,-35
467,-35,-33
468,-37,-33
469,-3,-29
470,31,13
471,85,75
472,155,73
473,91,-107
474,-103,-193
475,-247,-255
476,-241,-241
477,-155,-155
478,-77,-85
479,-45,-27
480,-31,-5
481,-29,-3
482,-23,-5
483,-23,-3
484,-19,-1
485,-17,-1
486,-17,1
487,-11,3
488,-9,7
489,-3,7
490,1,9
491,5,13
492,9,17
493,15,21
494,17,23
495,23,29
496,31,35
497,33,39
498,41,41
499,45,45
500,51,53
501,49,53
502,51,51
503,49,53
504,49,51
505,45,51
506,39,47
507,31,43
508,21,33
509,11,21
510,-1,9
511,-9,-3
512,-17,-11
513,-21,-17
514,-23,-21
515,-25,-23
516,-27,-23
517,-27,-25
518,-31,-23
519,-25,-25
520,-25,-21
521,-27,-23
522,-19,-23
523,-21,-19
524,-19,-19
525,-17,-21
526,-17,-23
527,-15,-23
528,-19,-23
529,-21,-25
530,-19,-25
531,-23,-27
532,-23,-27
533,-27,-29
534,-29,-33
535,-25,-31
536,-27,-29
537,-25,-33
538,-27,-35
539,-29,-33
540,-31,-31
541,-33,-35
542,-31,-35
543,-29,-33
544,-29,-29
545,-27,-29
546,-25,-29
547,-19,-27
548,-9,-21
549,-11,-15
550,-7,-19
551,7,-17
552,3,-13
553,-13,-23
554,-25,-35
555,-19,-33
556,-19,-27
557,-35,-31
558,-37,-37
559,-33,-35
560,-31,-33
561,-25,-35
562,-29,-31
563,-9,-31
564,19,-11
565,67,33
566,103,103
567,179,37
568,67,-119
569,-139,-185
570,-235,-261
571,-189,-195
572,-111,-117
573,-43,-57
574,-21,-9
575,-11,1
576,-11,3
577,-3,-1
578,-3,3
579,-1,3
580,1,5
581,3,7
582,11,9
583,15,11
584,19,17
585,29,17
586,29,21
587,33,25
588,37,29
589,37,33
590,45,35
591,53,41
592,57,49
593,67,51
594,69,55
595,73,57
596,75,61
597,73,59
598,73,57
599,69,59
600,67,57
601,63,51
602,51,45
603,45,35
604,31,29
605,19,11
606,13,3
607,9,-1
608,5,-3
609,5,-5
610,3,-9
611,5,-11
612,5,-7
613,5,-9
614,3,-9
615,9,-9
616,7,-5
617,9,-7
618,11,-7
619,15,-7
620,15,-1
621,13,-9
622,13,-9
623,17,-7
624,15,-9
625,15,-11
626,13,-13
627,13,-7
628,13,-13
629,9,-15
630,13,-15
631,11,-13
632,11,-15
633,15,-17
634,11,-13
635,15,-13
636,21,-11
637,29,-7
638,31,-1
639,31,-1
640,47,-5
641,37,-3
642,21,-15
643,15,-19
644,19,-17
645,13,-17
646,1,-21
647,1,-17
648,3,-25
649,7,-21
650,11,-21
651,5,-19
652,19,-17
653,45,-3
654,83,37
655,127,105
656,223,77
657,103,-41
658,-73,-117
659,-167,-217
660,-171,-191
661,-111,-125
662,-59,-81
663,-7,-35
664,7,-1
665,9,1
666,15,3
667,17,1
668,19,5
669,25,5
670,21,5
671,29,9
672,27,13
673,31,11
674,37,11
675,39,17
676,47,19
677,51,21
678,53,23
679,59,29
680,63,29
681,69,35
682,75,39
683,79,39
684,83,43
685,83,45
686,81,41
687,81,43
688,77,41
689,71,37
690,57,33
691,51,29
692,39,19
693,25,9
694,15,3
695,7,-7
696,7,-11
697,3,-13
698,-1,-17
699,-3,-17
700,-5,-17
701,-5,-17
702,-7,-21
703,-5,-17
704,-7,-17
705,-5,-19
706,-3,-19
707,-3,-17
708,-1,-13
709,-1,-17
710,-3,-19
711,-3,-19
712,-3,-17
713,-1,-21
714,-3,-17
715,-5,-19
716,-7,-21
717,-9,-21
718,-7,-25
719,-9,-23
720,-9,-21
721,-5,-27
722,-11,-27
723,-15,-27
724,-13,-25
725,-15,-27
726,-15,-27
727,-11,-25
728,-9,-21
729,-1,-23
730,9,-15
731,5,-9
732,3,-13
733,15,-19
734,3,-15
735,-11,-25
736,-15,-31
737,-9,-31
738,-11,-27
739,-25,-25
740,-31,-33
741,-29,-35
742,-27,-37
743,-25,-35
744,-27,-31
745,-7,-29
746,21,-11
747,93,41
748,165,109
749,269,-15
750,89,-155
751,-197,-207
752,-279,-267
753,-179,-175
754,-75,-89
755,-31,-17
756,-21,3
757,-21,-1
758,-19,-1
759,-17,-1
760,-11,1
761,-13,-1
762,-5,1
763,-7,5
764,-5,9
765,-3,7
766,5,9
767,7,17
768,13,19
769,19,23
770,23,29
771,27,31
772,35,39
773,35,43
774,43,49
775,49,55
776,53,59
777,59,61
778,57,63
779,53,63
780,51,61
781,45,61
782,39,53
783,29,45
784,21,35
785,9,21
786,3,9
787,-11,-1
788,-13,-11
789,-21,-15
790,-27,-21
791,-25,-21
792,-27,-21
793,-31,-23
794,-27,-25
795,-29,-25
796,-27,-21
797,-23,-23
798,-25,-21
799,-21,-21
800,-21,-19
801,-17,-21
802,-15,-19
803,-21,-17
804,-17,-21
805,-19,-21
806,-21,-23
807,-17,-21
808,-21,-23
809,-23,-25
810,-21,-23
811,-23,-27
812,-23,-27
813,-23,-25
814,-29,-29
815,-27,-31
816,-25,-27
817,-27,-29
818,-25,-29
819,-29,-29
820,-25,-27
821,-21,-27
822,-23,-23
823,-11,-21
824,-1,-13
825,1,-11
826,-5,-13
827,7,-13
828,7,-13
829,-13,-17
830,-21,-35
831,-19,-31
832,-17,-25
833,-33,-25
834,-35,-35
835,-37,-37
836,-35,-33
837,-33,-31
838,-33,-35
839,-33,-33
840,-1,-27
841,35,13
842,113,85
843,195,77
844,179,-111
845,-91,-195
846,-291,-261
847,-239,-215
848,-129,-121
849,-55,-47
850,-29,-3
851,-25,1
852,-25,1
853,-25,-1
854,-27,-1
855,-21,1
856,-15,7
857,-17,5
858,-13,7
859,-9,9
860,-5,11
861,-3,15
862,1,17
863,7,21
864,9,27
865,17,31
866,23,33
867,25,43
868,33,47
869,41,53
870,41,53
871,45,57
872,43,61
873,43,57
874,39,57
875,35,57
876,31,55
877,21,43
878,9,31
879,-1,17
880,-13,7
881,-23,-7
882,-27,-13
883,-35,-19
884,-37,-21
885,-41,-25
886,-43,-29
887,-43,-27
888,-41,-25
889,-37,-27
890,-41,-25
891,-37,-25
892,-35,-23
893,-37,-25
894,-33,-23
895,-31,-21
896,-29,-21
897,-31,-21
898,-31,-23
899,-31,-23
900,-33,-25
901,-35,-25
902,-35,-27
903,-37,-27
904,-37,-27
905,-39,-29
906,-39,-31
907,-41,-29
908,-41,-31
909,-43,-33
910,-45,-33
911,-43,-33
912,-43,-31
913,-45,-33
914,-43,-33
915,-43,-33
916,-43,-33
917,-43,-33
918,-47,-37
919,-45,-35
920,-43,-33
921,-39,-31
922,-35,-27
923,-25,-27
924,-17,-17
925,-17,-15
926,-21,-21
927,-11,-21
928,-17,-19
929,-31,-29
930,-35,-39
931,-31,-37
932,-35,-27
933,-47,-35
934,-51,-41
935,-49,-41
936,-45,-39
937,-45,-37
938,-45,-41
939,-25,-37
940,5,-7
941,75,43
942,129,99
943,199,-61
944,9,-187
945,-247,-235
946,-279,-263
947,-175,-161
948,-77,-77
949,-43,-11
950,-37,-5
951,-33,-7
952,-31,-3
953,-31,-3
954,-27,-5
955,-27,-3
956,-23,1
957,-21,1
958,-19,1
959,-13,7
960,-9,11
961,-3,11
962,1,17
963,5,17
964,11,23
965,15,29
966,19,31
967,27,37
968,33,45
969,37,49
970,41,53
971,41,53
972,43,57
973,39,55
974,35,53
975,33,53
976,27,47
977,15,37
978,7,25
979,-3,13
980,-13,1
981,-27,-11
982,-33,-19
983,-37,-23
984,-39,-25
985,-41,-29
986,-39,-31
987,-41,-31
988,-41,-29
989,-41,-29
990,-39,-31
991,-35,-29
992,-35,-25
993,-35,-27
994,-29,-29
995,-33,-27
996,-31,-27
997,-31,-27
998,-33,-31
999,-31,-31
1000,-31,-29
1001,-35,-33
1002,-31,-33
1003,-35,-35
1004,-37,-35
1005,-37,-37
1006,-41,-37
1007,-41,-37
1008,-39,-37
1009,-41,-37
1010,-41,-39
1011,-39,-39
1012,-41,-39
1013,-41,-39
1014,-45,-43
1015,-41,-43
1016,-41,-39
1017,-41,-39
1018,-37,-41
1019,-39,-39
1020,-37,-39
1021,-37,-41
1022,-41,-39
1023,-37,-41
1024,-37,-39
1025,-39,-39
1026,-35,-41
1027,-33,-37
1028,-27,-31
1029,-15,-33
1030,-15,-21
1031,-17,-23
1032,-9,-27
1033,-1,-27
1034,-13,-27
1035,-31,-39
1036,-33,-43
1037,-27,-41
1038,-41,-37
1039,-47,-43
1040,-47,-45
1041,-47,-47
1042,-39,-45
1043,-41,-43
1044,-43,-43
1045,-5,-35
1046,27,9
1047,89,77
1048,183,33
1049,85,-147
1050,-157,-215
1051,-279,-277
1052,-215,-201
1053,-119,-121
1054,-59,-53
1055,-41,-15
1056,-37,-9
1057,-37,-13
1058,-33,-11
1059,-31,-9
1060,-29,-7
1061,-25,-7
1062,-23,-5
1063,-19,-3
1064,-15,3
1065,-13,3
1066,-5,3
1067,-3,5
1068,3,13
1069,7,15
1070,11,17
1071,17,25
1072,23,35
1073,29,37
1074,35,41
1075,35,47
1076,37,49
1077,41,47
1078,35,45
1079,33,45
1080,33,47
1081,25,43
1082,21,33
1083,11,27
1084,-3,17
1085,-11,3
1086,-23,-11
1087,-29,-17
1088,-35,-21
1089,-41,-25
1090,-37,-29
1091,-43,-31
1092,-45,-29
1093,-41,-31
1094,-45,-31
1095,-41,-29
1096,-41,-27
1097,-37,-25
1098,-35,-27
1099,-35,-23
1100,-33,-25
1101,-31,-27
1102,-35,-29
1103,-33,-27
1104,-33,-29
1105,-35,-29
1106,-33,-29
1107,-35,-31
1108,-35,-31
1109,-37,-31
1110,-37,-33
1111,-39,-33
1112,-39,-29
1113,-41,-33
1114,-33,-35
1115,-35,-33
1116,-37,-33
1117,-35,-33
1118,-37,-35
1119,-35,-33
1120,-35,-35
1121,-35,-37
1122,-33,-37
1123,-33,-37
1124,-33,-37
1125,-33,-37
1126,-33,-41
1127,-33,-37
1128,-33,-35
1129,-31,-37
1130,-29,-37
1131,-33,-37
1132,-29,-33
1133,-25,-29
1134,-21,-29
1135,-7,-27
1136,-3,-17
1137,-9,-17
1138,3,-25
1139,3,-21
1140,-11,-25
1141,-23,-37
1142,-23,-37
1143,-21,-33
1144,-33,-33
1145,-37,-41
1146,-37,-45
1147,-35,-43
1148,-33,-41
1149,-37,-45
1150,-23,-45
1151,9,-19
1152,67,35
1153,119,91
1154,161,-69
1155,-7,-185
1156,-217,-237
1157,-253,-255
1158,-169,-163
1159,-79,-85
1160,-39,-19
1161,-31,-3
1162,-25,-5
1163,-25,-5
1164,-23,-3
1165,-19,-3
1166,-19,-5
1167,-13,1
1168,-13,3
1169,-13,3
1170,-5,5
1171,-3,7
1172,3,15
1173,7,17
1174,11,21
1175,17,25
1176,21,33
1177,23,35
1178,33,41
1179,37,45
1180,43,53
1181,47,53
1182,43,55
1183,47,53
1184,47,59
1185,43,55
1186,41,53
1187,39,49
1188,31,45
1189,23,35
1190,9,23
1191,3,9
1192,-5,5
1193,-11,-7
1194,-17,-15
1195,-21,-15
1196,-25,-19
1197,-29,-21
1198,-29,-23
1199,-27,-21
1200,-27,-21
1201,-27,-19
1202,-25,-21
1203,-23,-17
1204,-19,-19
1205,-21,-19
1206,-23,-19
1207,-21,-19
1208,-21,-19
1209,-23,-21
1210,-21,-23
1211,-21,-23
1212,-23,-21
1213,-23,-27
1214,-29,-29
1215,-25,-29
1216,-25,-27
1217,-29,-27
1218,-27,-29
1219,-27,-29
1220,-29,-27
1221,-27,-31
1222,-29,-29
1223,-27,-31
1224,-29,-27
1225,-29,-29
1226,-27,-31
1227,-29,-29
1228,-27,-29
1229,-25,-31
1230,-29,-29
1231,-27,-29
1232,-27,-23
1233,-29,-29
1234,-29,-29
1235,-29,-29
1236,-27,-27
1237,-29,-27
1238,-27,-21
1239,-21,-27
1240,-17,-23
1241,-7,-25
1242,3,-13
1243,-7,-15
1244,5,-19
1245,1,-17
1246,-11,-25
1247,-21,-33
1248,-19,-31
1249,-21,-29
1250,-31,-29
1251,-35,-37
1252,-35,-35
1253,-31,-35
1254,-29,-33
1255,-33,-33
1256,-19,-29
1257,9,-9
1258,63,33
1259,103,111
1260,179,7
1261,79,-155
1262,-155,-209
1263,-263,-273
1264,-197,-191
1265,-103,-109
1266,-39,-33
1267,-23,1
1268,-21,1
1269,-19,-1
1270,-19,-1
1271,-13,1
1272,-13,3
1273,-11,5
1274,-7,5
1275,-5,9
1276,1,11
1277,5,13
1278,7,15
1279,13,21
