,0,1
0,-37,-33
1,-37,-33
2,-37,-35
3,-37,-33
4,-37,-33
5,-37,-33
6,-37,-33
7,-37,-33
8,-35,-31
9,-35,-33
10,-35,-33
11,-35,-31
12,-35,-29
13,-35,-31
14,-35,-33
15,-35,-31
16,-33,-29
17,-33,-31
18,-33,-31
19,-33,-29
20,-31,-31
21,-33,-31
22,-33,-31
23,-33,-29
24,-33,-29
25,-33,-31
26,-31,-29
27,-31,-29
28,-31,-29
29,-33,-29
30,-33,-29
31,-31,-29
32,-31,-27
33,-33,-29
34,-29,-29
35,-29,-29
36,-29,-27
37,-31,-27
38,-31,-29
39,-29,-27
40,-29,-27
41,-27,-27
42,-29,-27
43,-29,-27
44,-27,-25
45,-31,-27
46,-29,-29
47,-25,-25
48,-21,-19
49,-15,-21
50,-7,-17
51,-5,-9
52,-5,-9
53,1,-13
54,-3,-15
55,-17,-15
56,-25,-25
57,-21,-27
58,-23,-25
59,-31,-23
60,-35,-27
61,-39,-31
62,-37,-33
63,-33,-27
64,-29,-27
65,-25,-27
66,-29,-25
67,-7,-19
68,25,25
69,105,87
70,191,79
71,211,-59
72,-7,-129
73,-181,-199
74,-187,-187
75,-127,-117
76,-81,-75
77,-35,-41
78,-23,-3
79,-19,5
80,-17,7
81,-19,5
82,-15,5
83,-17,7
84,-13,9
85,-13,11
86,-11,9
87,-9,11
88,-5,15
89,-7,15
90,-3,15
91,-1,17
92,1,21
93,3,21
94,3,23
95,7,25
96,11,29
97,13,29
98,17,33
99,23,37
100,25,41
101,31,43
102,35,45
103,43,51
104,51,59
105,57,61
106,65,65
107,71,67
108,77,71
109,79,73
110,83,73
111,83,73
112,79,71
113,71,61
114,59,45
115,39,33
116,23,19
117,3,3
118,-9,-11
119,-19,-19
120,-25,-23
121,-27,-27
122,-31,-31
123,-33,-31
124,-33,-31
125,-37,-33
126,-37,-35
127,-37,-33
128,-37,-33
129,-33,-33
130,-35,-31
131,-35,-31
132,-35,-31
133,-37,-31
134,-35,-31
135,-33,-29
136,-33,-27
137,-29,-29
138,-31,-27
139,-33,-27
140,-31,-27
141,-35,-29
142,-33,-29
143,-31,-27
144,-31,-27
145,-29,-29
146,-33,-29
147,-35,-31
148,-33,-29
149,-33,-31
150,-33,-33
151,-33,-31
152,-33,-31
153,-31,-33
154,-33,-33
155,-33,-33
156,-33,-31
157,-33,-33
158,-35,-35
159,-33,-33
160,-33,-31
161,-33,-33
162,-33,-33
163,-33,-31
164,-31,-29
165,-31,-33
166,-33,-33
167,-29,-31
168,-29,-31
169,-31,-31
170,-31,-33
171,-31,-31
172,-29,-31
173,-31,-31
174,-29,-31
175,-29,-31
176,-27,-29
177,-29,-29
178,-27,-31
179,-27,-31
180,-27,-29
181,-27,-31
182,-27,-31
183,-25,-31
184,-27,-29
185,-25,-29
186,-25,-29
187,-27,-29
188,-25,-27
189,-25,-27
190,-27,-29
191,-25,-29
192,-25,-25
193,-25,-29
194,-23,-27
195,-23,-29
196,-23,-25
197,-23,-27
198,-25,-29
199,-23,-27
200,-21,-25
201,-21,-25
202,-17,-23
203,-15,-23
204,-5,-21
205,1,-13
206,-5,-13
207,5,-13
208,7,-11
209,-7,-13
210,-17,-27
211,-17,-25
212,-15,-23
213,-25,-23
214,-31,-29
215,-31,-31
216,-31,-29
217,-25,-31
218,-23,-29
219,-23,-27
220,-23,-25
221,-11,-25
222,11,5
223,85,49
224,163,105
225,241,19
226,99,-79
227,-117,-145
228,-171,-197
229,-149,-143
230,-95,-95
231,-45,-59
232,-21,-15
233,-9,1
234,-11,1
235,-11,1
236,-11,3
237,-9,3
238,-11,3
239,-7,5
240,-3,7
241,-1,9
242,-3,7
243,-3,11
244,1,13
245,1,15
246,5,13
247,7,17
248,11,19
249,9,17
250,13,19
251,15,21
252,23,25
253,27,27
254,27,31
255,33,33
256,39,39
257,43,41
258,53,45
259,57,49
260,63,55
261,69,57
262,73,59
263,79,59
264,83,63
265,85,63
266,83,61
267,75,59
268,67,53
269,51,39
270,33,21
271,17,9
272,5,-3
273,-13,-11
274,-19,-21
275,-27,-25
276,-29,-29
277,-33,-31
278,-37,-33
279,-35,-35
280,-35,-31
281,-39,-33
282,-35,-35
283,-35,-33
284,-37,-33
285,-37,-33
286,-39,-33
287,-35,-31
288,-33,-29
289,-31,-31
290,-35,-29
291,-35,-29
292,-33,-27
293,-33,-31
294,-33,-29
295,-31,-29
296,-35,-25
297,-31,-29
298,-35,-29
299,-35,-29
300,-35,-29
301,-37,-31
302,-37,-33
303,-35,-31
304,-35,-31
305,-33,-33
306,-35,-33
307,-37,-31
308,-35,-33
309,-39,-33
310,-37,-35
311,-37,-33
312,-35,-33
313,-33,-33
314,-35,-33
315,-35,-33
316,-35,-33
317,-37,-33
318,-37,-35
319,-35,-33
320,-35,-31
321,-33,-33
322,-35,-33
323,-35,-33
324,-35,-31
325,-35,-35
326,-37,-35
327,-31,-33
328,-33,-31
329,-33,-33
330,-31,-33
331,-33,-33
332,-33,-31
333,-33,-31
334,-33,-33
335,-31,-31
336,-31,-29
337,-31,-33
338,-29,-33
339,-31,-31
340,-31,-31
341,-29,-31
342,-31,-33
343,-29,-31
344,-29,-31
345,-27,-31
346,-27,-31
347,-25,-27
348,-21,-25
349,-19,-27
350,-11,-25
351,-7,-15
352,-7,-13
353,3,-19
354,-3,-17
355,-19,-19
356,-25,-29
357,-25,-31
358,-27,-29
359,-33,-29
360,-37,-31
361,-35,-35
362,-37,-35
363,-33,-33
364,-29,-31
365,-29,-31
366,-31,-31
367,-13,-27
368,13,9
369,95,59
370,175,99
371,239,-11
372,65,-103
373,-151,-165
374,-193,-205
375,-151,-137
376,-97,-93
377,-43,-59
378,-21,-13
379,-17,3
380,-17,5
381,-17,3
382,-17,1
383,-13,3
384,-11,7
385,-9,5
386,-7,7
387,-7,9
388,-5,11
389,-5,11
390,-3,11
391,1,13
392,3,17
393,9,17
394,7,19
395,9,21
396,13,25
397,15,25
398,17,25
399,25,31
400,27,35
401,39,39
402,41,41
403,47,47
404,53,53
405,59,55
406,67,57
407,71,61
408,77,65
409,81,65
410,85,67
411,83,69
412,83,65
413,69,57
414,57,41
415,41,29
416,23,17
417,9,1
418,-5,-11
419,-17,-19
420,-23,-23
421,-27,-29
422,-29,-33
423,-31,-33
424,-33,-31
425,-31,-35
426,-35,-33
427,-35,-35
428,-33,-33
429,-35,-33
430,-35,-35
431,-35,-33
432,-33,-31
433,-35,-33
434,-31,-33
435,-33,-29
436,-31,-29
437,-31,-29
438,-31,-31
439,-31,-29
440,-31,-27
441,-31,-29
442,-29,-29
443,-29,-29
444,-29,-27
445,-29,-31
446,-33,-29
447,-31,-31
448,-31,-29
449,-33,-31
450,-31,-31
451,-33,-31
452,-31,-29
453,-31,-31
454,-35,-31
455,-31,-31
456,-31,-29
457,-33,-31
458,-29,-33
459,-29,-31
460,-29,-31
461,-29,-31
462,-29,-31
463,-29,-29
464,-27,-29
465,-29,-29
466,-27,-31
467,-27,-29
468,-25,-27
469,-27,-29
470,-27,-29
471,-27,-29
472,-25,-27
473,-27,-27
474,-25,-29
475,-25,-27
476,-25,-25
477,-25,-27
478,-25,-27
479,-23,-27
480,-23,-23
481,-23,-25
482,-23,-27
483,-23,-27
484,-21,-23
485,-23,-27
486,-23,-25
487,-21,-25
488,-21,-23
489,-19,-25
490,-19,-23
491,-21,-23
492,-19,-23
493,-21,-25
494,-19,-25
495,-19,-23
496,-19,-21
497,-17,-23
498,-19,-23
499,-19,-23
500,-17,-21
501,-19,-21
502,-19,-23
503,-19,-23
504,-17,-21
505,-19,-21
506,-17,-23
507,-17,-21
508,-19,-19
509,-17,-21
510,-19,-23
511,-17,-21
512,-15,-21
513,-17,-21
514,-15,-21
515,-15,-21
516,-9,-17
517,-7,-15
518,-5,-17
519,3,-13
520,9,-3
521,5,-5
522,15,-9
523,9,-9
524,-5,-9
525,-11,-21
526,-11,-21
527,-11,-19
528,-19,-19
529,-23,-23
530,-23,-29
531,-23,-25
532,-19,-23
533,-17,-23
534,-17,-23
535,-17,-21
536,5,-11
537,47,31
538,133,101
539,223,61
540,203,-69
541,-11,-131
542,-175,-195
543,-171,-175
544,-111,-109
545,-65,-71
546,-21,-35
547,-9,3
548,-7,11
549,-7,11
550,-9,9
551,-5,11
552,-3,15
553,-3,13
554,1,13
555,1,17
556,5,19
557,5,19
558,5,19
559,9,21
560,11,25
561,13,25
562,17,25
563,19,29
564,23,31
565,23,33
566,25,35
567,31,37
568,35,43
569,39,47
570,47,49
571,53,55
572,59,63
573,65,65
574,73,67
575,79,69
576,87,75
577,91,77
578,93,77
579,93,77
580,91,77
581,85,69
582,73,57
583,57,41
584,41,29
585,27,9
586,9,-1
587,-5,-11
588,-11,-17
589,-19,-25
590,-21,-27
591,-23,-27
592,-23,-27
593,-21,-31
594,-25,-29
595,-27,-31
596,-25,-29
597,-29,-29
598,-27,-31
599,-27,-29
600,-27,-29
601,-25,-29
602,-23,-29
603,-25,-27
604,-25,-27
605,-25,-27
606,-27,-27
607,-25,-27
608,-23,-25
609,-25,-27
610,-25,-27
611,-23,-25
612,-25,-25
613,-25,-27
614,-29,-27
615,-27,-29
616,-25,-27
617,-29,-27
618,-27,-29
619,-27,-29
620,-27,-27
621,-27,-29
622,-29,-31
623,-29,-29
624,-27,-27
625,-29,-31
626,-27,-31
627,-27,-29
628,-25,-29
629,-27,-29
630,-27,-33
631,-27,-29
632,-25,-29
633,-27,-29
634,-25,-31
635,-25,-29
636,-25,-29
637,-25,-31
638,-27,-31
639,-23,-31
640,-23,-29
641,-25,-29
642,-25,-29
643,-23,-31
644,-23,-29
645,-23,-31
646,-25,-33
647,-23,-29
648,-23,-29
649,-23,-29
650,-23,-31
651,-23,-29
652,-23,-29
653,-25,-29
654,-23,-29
655,-21,-29
656,-21,-27
657,-21,-29
658,-21,-29
659,-23,-27
660,-21,-27
661,-23,-27
662,-21,-31
663,-21,-29
664,-19,-27
665,-19,-27
666,-19,-27
667,-21,-25
668,-19,-25
669,-19,-27
670,-21,-29
671,-19,-27
672,-19,-25
673,-17,-27
674,-19,-27
675,-19,-27
676,-17,-23
677,-19,-25
678,-19,-27
679,-15,-25
680,-13,-21
681,-9,-21
682,1,-19
683,5,-11
684,5,-7
685,9,-13
686,7,-13
687,-7,-15
688,-13,-25
689,-9,-27
690,-13,-25
691,-21,-23
692,-25,-27
693,-29,-33
694,-27,-35
695,-25,-31
696,-21,-29
697,-17,-27
698,-21,-27
699,-3,-23
700,17,11
701,89,59
702,157,101
703,249,-3
704,103,-107
705,-133,-165
706,-185,-211
707,-139,-143
708,-85,-89
709,-35,-55
710,-15,-11
711,-9,3
712,-7,7
713,-9,1
714,-5,3
715,-5,5
716,-3,9
717,-1,9
718,-3,7
719,1,11
720,3,13
721,3,13
722,7,13
723,7,17
724,11,19
725,13,17
726,13,19
727,17,21
728,21,25
729,21,25
730,27,29
731,29,33
732,35,37
733,41,37
734,43,43
735,51,47
736,59,53
737,65,59
738,75,61
739,79,63
740,85,69
741,89,71
742,89,71
743,93,71
744,91,73
745,85,61
746,75,51
747,59,39
748,43,25
749,23,5
750,7,-7
751,-5,-17
752,-11,-23
753,-19,-29
754,-21,-33
755,-23,-33
756,-25,-33
757,-25,-35
758,-27,-37
759,-27,-35
760,-27,-35
761,-27,-35
762,-25,-35
763,-27,-35
764,-25,-33
765,-27,-33
766,-25,-35
767,-25,-31
768,-25,-29
769,-23,-31
770,-23,-31
771,-23,-31
772,-23,-27
773,-23,-31
774,-25,-31
775,-25,-31
776,-23,-29
777,-21,-33
778,-23,-31
779,-25,-33
780,-25,-31
781,-25,-31
782,-27,-33
783,-27,-35
784,-27,-33
785,-27,-31
786,-25,-35
787,-25,-33
788,-25,-33
789,-25,-33
790,-25,-35
791,-25,-35
792,-25,-31
793,-29,-33
794,-27,-35
795,-23,-35
796,-23,-33
797,-23,-33
798,-25,-35
799,-23,-35
800,-23,-31
801,-25,-33
802,-23,-33
803,-21,-33
804,-21,-31
805,-23,-33
806,-27,-33
807,-23,-33
808,-21,-29
809,-21,-31
810,-21,-31
811,-21,-31
812,-21,-29
813,-21,-31
814,-23,-31
815,-21,-31
816,-21,-29
817,-23,-29
818,-19,-31
819,-19,-29
820,-19,-27
821,-21,-27
822,-21,-31
823,-17,-27
824,-17,-27
825,-19,-27
826,-17,-27
827,-19,-27
828,-17,-27
829,-17,-27
830,-17,-29
831,-15,-27
832,-11,-21
833,-7,-25
834,-1,-21
835,3,-13
836,1,-9
837,11,-13
838,15,-13
839,1,-13
840,-11,-23
841,-15,-27
842,-9,-25
843,-17,-23
844,-23,-25
845,-27,-31
846,-27,-31
847,-25,-29
848,-19,-27
849,-15,-27
850,-17,-27
851,-15,-25
852,5,-5
853,59,37
854,145,101
855,245,41
856,129,-69
857,-93,-137
858,-159,-199
859,-151,-145
860,-103,-99
861,-61,-69
862,-23,-33
863,-9,-3
864,-7,5
865,-7,3
866,-5,3
867,-5,5
868,-5,7
869,-3,5
870,-1,7
871,1,9
872,3,9
873,3,9
874,7,11
875,7,13
876,9,17
877,11,15
878,11,15
879,17,19
880,19,21
881,23,25
882,25,25
883,27,29
884,33,33
885,35,35
886,41,37
887,49,43
888,55,45
889,65,49
890,69,55
891,75,59
892,81,61
893,83,61
894,85,61
895,87,63
896,87,63
897,81,57
898,71,49
899,55,37
900,35,25
901,17,7
902,1,-5
903,-7,-15
904,-19,-19
905,-25,-25
906,-27,-31
907,-29,-31
908,-29,-31
909,-33,-31
910,-35,-35
911,-35,-33
912,-33,-33
913,-35,-33
914,-35,-33
915,-35,-33
916,-33,-33
917,-31,-31
918,-33,-33
919,-31,-31
920,-31,-29
921,-33,-31
922,-31,-33
923,-31,-31
924,-31,-29
925,-31,-29
926,-33,-31
927,-31,-29
928,-31,-29
929,-33,-29
930,-31,-31
931,-31,-31
932,-33,-31
933,-33,-33
934,-35,-31
935,-33,-33
936,-33,-31
937,-35,-33
938,-33,-35
939,-35,-33
940,-37,-33
941,-35,-33
942,-37,-35
943,-35,-35
944,-33,-33
945,-37,-35
946,-35,-37
947,-35,-35
948,-35,-35
949,-35,-35
950,-37,-37
951,-35,-37
952,-35,-35
953,-35,-35
954,-33,-35
955,-35,-35
956,-35,-35
957,-33,-35
958,-35,-35
959,-35,-35
960,-33,-31
961,-33,-35
962,-31,-35
963,-31,-33
964,-31,-33
965,-33,-33
966,-35,-33
967,-31,-33
968,-31,-31
969,-33,-31
970,-27,-31
971,-25,-29
972,-19,-27
973,-13,-25
974,-11,-17
975,-13,-19
976,-3,-19
977,-5,-19
978,-17,-23
979,-29,-33
980,-25,-31
981,-29,-29
982,-37,-31
983,-43,-35
984,-39,-35
985,-39,-35
986,-35,-35
987,-33,-33
988,-31,-33
989,-35,-31
990,-15,-25
991,23,17
992,109,79
993,211,77
994,183,-47
995,-29,-119
996,-167,-187
997,-185,-179
998,-137,-121
999,-91,-85
1000,-45,-51
1001,-23,-13
1002,-21,-3
1003,-19,-3
1004,-19,-1
1005,-19,-3
1006,-17,-1
1007,-15,1
1008,-15,3
1009,-9,3
1010,-9,3
1011,-9,7
1012,-7,7
1013,-9,7
1014,-5,7
1015,-1,11
1016,3,15
1017,5,15
1018,5,17
1019,9,19
1020,13,21
1021,13,23
1022,17,25
1023,23,27
1024,31,33
1025,37,37
1026,43,39
1027,49,45
1028,55,49
1029,63,53
1030,65,53
1031,71,55
1032,77,59
1033,77,59
1034,79,57
1035,75,57
1036,67,51
1037,51,37
1038,31,21
1039,15,7
1040,-1,-5
1041,-13,-15
1042,-21,-25
1043,-29,-29
1044,-33,-33
1045,-37,-37
1046,-39,-41
1047,-39,-39
1048,-39,-39
1049,-41,-41
1050,-39,-43
1051,-43,-39
1052,-41,-39
1053,-39,-41
1054,-41,-41
1055,-39,-39
1056,-39,-37
1057,-41,-37
1058,-37,-37
1059,-39,-37
1060,-37,-35
1061,-37,-35
1062,-39,-37
1063,-37,-35
1064,-37,-33
1065,-33,-37
1066,-37,-35
1067,-37,-35
1068,-39,-35
1069,-41,-37
1070,-39,-37
1071,-39,-37
1072,-39,-35
1073,-35,-37
1074,-39,-37
1075,-41,-37
1076,-39,-35
1077,-37,-37
1078,-39,-39
1079,-39,-37
1080,-37,-37
1081,-39,-37
1082,-37,-39
1083,-37,-37
1084,-37,-37
1085,-35,-37
1086,-39,-37
1087,-37,-37
1088,-35,-37
1089,-37,-39
1090,-35,-37
1091,-35,-37
1092,-35,-37
1093,-35,-39
1094,-35,-39
1095,-35,-37
1096,-33,-35
1097,-33,-37
1098,-31,-37
1099,-33,-35
1100,-31,-35
1101,-31,-35
1102,-33,-37
1103,-31,-37
1104,-31,-35
1105,-33,-35
1106,-29,-35
1107,-29,-33
1108,-31,-33
1109,-29,-33
1110,-31,-35
1111,-29,-33
1112,-29,-31
1113,-31,-33
1114,-27,-33
1115,-27,-31
1116,-27,-31
1117,-27,-31
1118,-29,-33
1119,-27,-33
1120,-27,-29
1121,-29,-31
1122,-25,-31
1123,-27,-31
1124,-25,-31
1125,-25,-31
1126,-27,-33
1127,-25,-31
1128,-25,-27
1129,-27,-29
1130,-25,-31
1131,-25,-31
1132,-23,-27
1133,-23,-29
1134,-25,-29
1135,-23,-29
1136,-21,-27
1137,-19,-27
1138,-15,-25
1139,-7,-25
1140,-1,-15
1141,1,-13
1142,1,-15
1143,7,-15
1144,-1,-15
1145,-17,-21
1146,-19,-33
1147,-17,-27
1148,-19,-25
1149,-27,-27
1150,-33,-35
1151,-31,-37
1152,-29,-33
1153,-25,-33
1154,-23,-31
1155,-25,-31
1156,-11,-27
1157,9,-1
1158,75,45
1159,157,101
1160,253,-11
1161,95,-123
1162,-155,-181
1163,-193,-207
1164,-139,-137
1165,-85,-89
1166,-35,-51
1167,-19,-7
1168,-13,3
1169,-11,3
1170,-11,1
1171,-11,3
1172,-9,5
1173,-9,5
1174,-5,5
1175,-5,7
1176,-3,9
1177,1,11
1178,1,11
1179,1,13
1180,5,15
1181,5,15
1182,7,17
1183,11,19
1184,15,23
1185,19,23
1186,21,27
1187,25,29
1188,27,33
1189,31,35
1190,37,37
1191,43,43
1192,49,49
1193,57,53
1194,63,57
1195,69,61
1196,75,67
1197,79,69
1198,85,67
1199,87,69
1200,87,71
1201,87,65
1202,79,57
1203,67,49
1204,53,33
1205,35,17
1206,17,1
1207,3,-9
1208,-7,-21
1209,-19,-27
1210,-21,-33
1211,-27,-37
1212,-27,-37
1213,-31,-39
1214,-31,-41
1215,-31,-39
1216,-31,-37
1217,-33,-41
1218,-31,-41
1219,-31,-39
1220,-31,-37
1221,-31,-39
1222,-33,-39
1223,-29,-37
1224,-29,-35
1225,-31,-37
1226,-29,-37
1227,-29,-35
1228,-29,-33
1229,-29,-35
1230,-31,-35
1231,-31,-35
1232,-29,-33
1233,-33,-35
1234,-29,-35
1235,-31,-35
1236,-31,-35
1237,-31,-35
1238,-35,-37
1239,-33,-37
1240,-33,-35
1241,-35,-37
1242,-33,-37
1243,-33,-37
1244,-31,-35
1245,-33,-37
1246,-35,-37
1247,-31,-37
1248,-31,-35
1249,-33,-37
1250,-31,-37
1251,-31,-35
1252,-31,-35
1253,-31,-37
1254,-33,-37
1255,-31,-37
1256,-29,-33
1257,-33,-35
1258,-31,-37
1259,-31,-37
1260,-31,-33
1261,-31,-35
1262,-33,-37
1263,-31,-35
1264,-29,-33
1265,-31,-33
1266,-29,-35
1267,-29,-33
1268,-27,-31
1269,-27,-33
1270,-29,-35
1271,-27,-33
1272,-27,-33
1273,-27,-33
1274,-27,-33
1275,-27,-31
1276,-25,-31
1277,-29,-33
1278,-27,-33
1279,-25,-31
