,0,1
0,-8,-52
1,-6,-54
2,-6,-56
3,-6,-54
4,-10,-56
5,-10,-44
6,-8,-46
7,-10,-38
8,-12,-44
9,-14,-28
10,-18,-32
11,-20,-20
12,-24,-28
13,-30,-20
14,-36,-22
15,-44,-18
16,-50,-28
17,-56,-34
18,-62,-40
19,-66,-42
20,-66,-44
21,-64,-56
22,-58,-46
23,-54,-46
24,-44,-24
25,-30,-22
26,-18,-12
27,-10,-16
28,-2,-6
29,2,-14
30,4,-6
31,4,-12
32,8,-12
33,6,-6
34,6,-12
35,4,-8
36,4,-20
37,4,-16
38,2,-14
39,2,-8
40,2,-20
41,2,-16
42,-2,-28
43,-2,-14
44,2,-20
45,0,-22
46,2,-26
47,2,-28
48,0,-20
49,4,-28
50,2,-30
51,2,-38
52,4,-26
53,2,-36
54,4,-24
55,6,-40
56,4,-38
57,0,-32
58,4,-28
59,2,-34
60,2,-30
61,2,-38
62,0,-26
63,8,-12
64,10,-16
65,2,2
66,8,2
67,18,56
68,20,32
69,10,40
70,6,14
71,-8,18
72,-18,10
73,-8,8
74,-2,-30
75,-6,-40
76,-6,-36
77,-8,-38
78,-6,-28
79,-10,-66
80,-12,70
81,-12,412
82,80,962
83,-50,912
84,-82,428
85,-48,-226
86,-110,-108
87,-92,-44
88,-22,-42
89,-24,-52
90,-14,-50
91,-16,-44
92,-10,-42
93,-14,-40
94,-12,-50
95,-12,-36
96,-12,-40
97,-14,-32
98,-16,-38
99,-18,-28
100,-20,-26
101,-20,-18
102,-22,-18
103,-24,-16
104,-26,-20
105,-32,-6
106,-34,0
107,-38,-2
108,-48,0
109,-54,-8
110,-62,2
111,-64,-10
112,-66,-12
113,-72,-34
114,-72,-24
115,-66,-30
116,-58,-16
117,-50,-16
118,-34,-4
119,-30,2
120,-18,12
121,-12,4
122,-6,4
123,0,2
124,-2,4
125,2,4
126,2,-4
127,2,2
128,2,-8
129,0,4
130,4,-4
131,0,2
132,2,-10
133,4,6
134,0,-6
135,-2,4
136,4,-6
137,2,-8
138,4,2
139,0,-6
140,4,-4
141,4,-12
142,6,-14
143,4,-14
144,6,-8
145,8,-24
146,8,-12
147,8,-26
148,6,-14
149,8,-20
150,10,-18
151,10,-24
152,8,-18
153,8,-20
154,8,-18
155,12,-12
156,18,-8
157,14,14
158,20,10
159,16,42
160,38,44
161,26,50
162,18,42
163,16,40
164,2,16
165,4,24
166,2,-6
167,2,-18
168,4,-26
169,2,-22
170,4,-26
171,-2,-44
172,-12,36
173,4,322
174,40,908
175,12,1018
176,-80,654
177,-48,-160
178,-94,-100
179,-86,-76
180,-32,-34
181,-8,-50
182,-4,-38
183,-4,-48
184,0,-42
185,0,-46
186,0,-36
187,2,-36
188,4,-38
189,6,-36
190,4,-34
191,4,-22
192,4,-28
193,2,-18
194,2,-32
195,-2,-8
196,-2,-16
197,-2,-4
198,-6,-10
199,-12,-4
200,-16,-4
201,-20,2
202,-26,-14
203,-36,-18
204,-36,-28
205,-44,-34
206,-38,-32
207,-38,-42
208,-34,-30
209,-24,-28
210,-16,-8
211,-6,-12
212,4,0
213,10,-10
214,16,8
215,22,-2
216,24,4
217,28,-4
218,26,-6
219,26,2
220,24,-6
221,26,-4
222,24,-12
223,22,-6
224,22,-10
225,24,2
226,22,-16
227,20,-8
228,20,-16
229,18,-10
230,22,-18
231,22,-12
232,22,-24
233,18,-10
234,22,-16
235,20,-18
236,24,-16
237,20,-26
238,20,-14
239,24,-22
240,26,-20
241,22,-30
242,26,-18
243,24,-26
244,26,-14
245,28,-26
246,24,-22
247,26,-20
248,28,-4
249,38,0
250,24,6
251,38,10
252,40,56
253,44,48
254,32,44
255,30,32
256,14,10
257,8,26
258,12,12
259,12,-14
260,16,-36
261,16,-32
262,12,-30
263,16,-26
264,12,-62
265,10,64
266,14,428
267,126,966
268,-38,918
269,-96,400
270,-62,-226
271,-122,-124
272,-78,-40
273,-2,-46
274,4,-52
275,6,-58
276,12,-44
277,14,-52
278,14,-46
279,16,-48
280,16,-52
281,16,-38
282,18,-40
283,16,-34
284,16,-38
285,16,-28
286,14,-30
287,12,-16
288,10,-28
289,4,-14
290,2,-18
291,-6,-6
292,-6,-8
293,-16,-10
294,-20,-14
295,-30,-12
296,-34,-16
297,-42,-30
298,-42,-32
299,-44,-46
300,-40,-28
301,-36,-32
302,-26,-18
303,-12,-22
304,-6,-12
305,4,-6
306,12,0
307,20,-8
308,24,-8
309,26,-10
310,26,-6
311,28,-4
312,28,-14
313,26,-10
314,28,-16
315,28,-6
316,28,-16
317,32,-10
318,30,-24
319,30,-6
320,32,-14
321,30,-12
322,30,-22
323,32,-22
324,30,-18
325,28,-20
326,32,-20
327,30,-30
328,32,-22
329,30,-28
330,32,-18
331,32,-36
332,28,-26
333,32,-36
334,32,-24
335,32,-30
336,32,-32
337,32,-30
338,28,-32
339,32,-26
340,30,-30
341,36,-16
342,40,-24
343,34,0
344,38,0
345,32,26
346,60,36
347,42,36
348,38,34
349,32,20
350,16,4
351,18,4
352,18,-10
353,20,-36
354,22,-34
355,22,-46
356,22,-36
357,18,-54
358,0,-36
359,34,188
360,26,722
361,110,990
362,-68,762
363,-86,10
364,-74,-160
365,-78,-102
366,-50,-44
367,10,-46
368,8,-56
369,16,-52
370,16,-58
371,18,-54
372,18,-54
373,18,-42
374,22,-56
375,20,-44
376,20,-50
377,16,-36
378,18,-32
379,16,-34
380,16,-30
381,10,-28
382,8,-18
383,4,-20
384,0,-10
385,-6,-20
386,-12,-2
387,-18,-12
388,-26,-6
389,-30,-22
390,-40,-24
391,-46,-28
392,-48,-32
393,-46,-38
394,-42,-36
395,-32,-32
396,-26,-22
397,-12,-6
398,-2,-18
399,6,-4
400,18,-14
401,18,0
402,26,-10
403,28,-8
404,28,-18
405,28,-8
406,30,-12
407,30,-14
408,30,-16
409,24,-24
410,26,-12
411,24,-22
412,26,-10
413,26,-26
414,28,-18
415,26,-24
416,24,-18
417,26,-24
418,24,-22
419,24,-30
420,26,-24
421,28,-22
422,26,-28
423,26,-30
424,22,-32
425,26,-26
426,26,-32
427,26,-24
428,26,-38
429,24,-26
430,26,-34
431,26,-24
432,28,-36
433,24,-28
434,26,-18
435,28,-10
436,34,-8
437,28,-2
438,32,10
439,52,46
440,40,46
441,32,34
442,34,24
443,12,2
444,10,14
445,10,-2
446,14,-32
447,10,-42
448,14,-40
449,8,-38
450,12,-42
451,0,-62
452,22,126
453,0,568
454,124,988
455,-62,858
456,-76,246
457,-46,-214
458,-92,-124
459,-80,-42
460,-6,-60
461,-12,-60
462,-10,-68
463,-10,-56
464,-8,-52
465,-8,-56
466,-4,-58
467,-6,-54
468,-8,-44
469,-12,-46
470,-10,-42
471,-12,-46
472,-12,-28
473,-16,-36
474,-18,-26
475,-26,-32
476,-26,-24
477,-30,-20
478,-34,-12
479,-44,-14
480,-50,-16
481,-54,-24
482,-62,-22
483,-70,-24
484,-68,-42
485,-72,-38
486,-70,-54
487,-64,-36
488,-58,-36
489,-44,-26
490,-34,-30
491,-26,-12
492,-20,-20
493,-14,-16
494,-6,-26
495,-6,-28
496,-4,-24
497,-2,-24
498,4,-28
499,0,-30
500,-2,-34
501,-4,-36
502,0,-26
503,0,-44
504,0,-32
505,0,-46
506,-2,-32
507,-2,-40
508,2,-44
509,-2,-46
510,-4,-38
511,-2,-40
512,-4,-40
513,-2,-40
514,-4,-54
515,-4,-38
516,-4,-54
517,-2,-42
518,-2,-58
519,2,-50
520,-2,-54
521,0,-44
522,0,-56
523,-4,-48
524,0,-48
525,2,-30
526,10,-30
527,4,-28
528,8,-16
529,20,14
530,24,12
531,10,10
532,10,6
533,-8,-22
534,-8,-12
535,-12,-30
536,-4,-46
537,-8,-66
538,-10,-64
539,-14,-60
540,-10,-58
541,-20,-86
542,-6,86
543,-6,476
544,74,1022
545,-86,978
546,-126,428
547,-88,-228
548,-104,-138
549,-100,-72
550,-24,-74
551,-20,-78
552,-16,-84
553,-20,-78
554,-12,-82
555,-14,-76
556,-12,-76
557,-14,-76
558,-14,-66
559,-14,-68
560,-14,-64
561,-16,-68
562,-14,-60
563,-18,-60
564,-18,-48
565,-18,-58
566,-24,-48
567,-20,-54
568,-26,-40
569,-26,-40
570,-30,-46
571,-34,-50
572,-38,-52
573,-42,-54
574,-44,-68
575,-44,-74
576,-44,-82
577,-40,-66
578,-30,-70
579,-26,-58
580,-14,-58
581,-8,-48
582,-2,-48
583,4,-44
584,8,-52
585,10,-54
586,12,-56
587,10,-58
588,14,-52
589,10,-66
590,14,-58
591,10,-68
592,12,-56
593,12,-64
594,8,-60
595,12,-70
596,8,-58
597,10,-64
598,10,-64
599,10,-64
600,6,-72
601,6,-60
602,8,-68
603,8,-64
604,6,-72
605,10,-68
606,4,-72
607,10,-62
608,10,-72
609,10,-66
610,8,-70
611,8,-62
612,10,-64
613,10,-68
614,8,-68
615,8,-60
616,18,-42
617,20,-46
618,18,-30
619,18,-32
620,36,14
621,26,-6
622,16,6
623,18,-24
624,-4,-28
625,-6,-28
626,0,-30
627,4,-68
628,2,-72
629,4,-76
630,2,-70
631,4,-68
632,-4,-118
633,14,56
634,12,452
635,136,984
636,-78,880
637,-132,304
638,-92,-274
639,-128,-156
640,-86,-84
641,-10,-80
642,-2,-92
643,-4,-98
644,0,-84
645,0,-90
646,4,-82
647,2,-94
648,4,-84
649,2,-82
650,0,-72
651,4,-82
652,2,-72
653,2,-78
654,-2,-62
655,2,-60
656,-2,-64
657,0,-52
658,-2,-54
659,-8,-40
660,-14,-42
661,-20,-40
662,-26,-52
663,-32,-40
664,-40,-56
665,-44,-52
666,-50,-68
667,-48,-70
668,-46,-64
669,-40,-58
670,-30,-54
671,-20,-48
672,-10,-46
673,-6,-42
674,4,-36
675,10,-46
676,14,-40
677,14,-50
678,14,-36
679,14,-44
680,16,-42
681,14,-48
682,12,-46
683,14,-42
684,14,-44
685,14,-46
686,10,-54
687,12,-42
688,10,-52
689,10,-44
690,10,-58
691,10,-54
692,8,-56
693,10,-50
694,10,-58
695,10,-56
696,12,-64
697,8,-56
698,12,-58
699,8,-64
700,10,-56
701,12,-70
702,8,-52
703,12,-64
704,12,-58
705,12,-66
706,10,-58
707,8,-56
708,16,-38
709,22,-42
710,12,-30
711,24,-16
712,20,16
713,36,14
714,18,12
715,16,4
716,0,-6
717,-8,-4
718,-4,-16
719,-2,-28
720,2,-64
721,2,-48
722,2,-54
723,2,-54
724,-2,-76
725,-12,-24
726,16,244
727,68,838
728,-2,976
729,-108,572
730,-116,-190
731,-148,-148
732,-94,-76
733,-32,-66
734,-14,-66
735,-10,-70
736,-8,-64
737,-2,-70
738,-2,-66
739,0,-72
740,-4,-62
741,2,-56
742,0,-64
743,0,-52
744,-2,-64
745,-2,-44
746,0,-50
747,0,-40
748,-2,-46
749,-6,-32
750,-8,-32
751,-14,-20
752,-18,-22
753,-26,-24
754,-32,-16
755,-40,-20
756,-44,-20
757,-52,-34
758,-54,-34
759,-58,-38
760,-52,-28
761,-48,-36
762,-38,-24
763,-26,-28
764,-20,-10
765,-10,-14
766,-2,-12
767,2,-20
768,6,-18
769,8,-14
770,8,-18
771,8,-22
772,6,-26
773,4,-16
774,4,-26
775,6,-20
776,4,-32
777,4,-30
778,0,-32
779,2,-24
780,2,-36
781,2,-30
782,2,-42
783,0,-32
784,0,-34
785,0,-40
786,0,-40
787,0,-44
788,-2,-38
789,0,-46
790,2,-40
791,-2,-54
792,2,-38
793,0,-48
794,2,-40
795,0,-50
796,0,-48
797,-4,-44
798,-2,-40
799,0,-44
800,-2,-42
801,0,-34
802,8,-24
803,-2,-6
804,8,-12
805,6,22
806,28,20
807,8,34
808,6,20
809,-6,8
810,-18,-10
811,-16,2
812,-14,-26
813,-12,-46
814,-10,-52
815,-14,-56
816,-14,-44
817,-14,-62
818,-26,-18
819,4,228
820,36,810
821,8,986
822,-110,674
823,-130,-128
824,-140,-146
825,-108,-96
826,-60,-46
827,-26,-64
828,-28,-64
829,-28,-70
830,-26,-60
831,-24,-58
832,-24,-60
833,-22,-58
834,-24,-64
835,-30,-48
836,-30,-56
837,-28,-46
838,-30,-54
839,-34,-44
840,-34,-40
841,-38,-32
842,-42,-36
843,-42,-28
844,-48,-28
845,-58,-20
846,-60,-18
847,-66,-24
848,-76,-26
849,-84,-26
850,-88,-28
851,-90,-40
852,-92,-38
853,-86,-48
854,-76,-26
855,-66,-30
856,-54,-18
857,-46,-24
858,-38,-20
859,-26,-18
860,-22,-20
861,-16,-24
862,-18,-28
863,-12,-28
864,-16,-28
865,-14,-20
866,-12,-36
867,-18,-30
868,-16,-40
869,-16,-26
870,-12,-36
871,-14,-30
872,-14,-42
873,-12,-36
874,-12,-36
875,-8,-38
876,-10,-38
877,-12,-50
878,-12,-34
879,-10,-42
880,-8,-42
881,-12,-50
882,-12,-46
883,-12,-48
884,-10,-42
885,-6,-54
886,-8,-46
887,-6,-52
888,-8,-46
889,-4,-48
890,-4,-50
891,-2,-50
892,-6,-48
893,-6,-42
894,-4,-42
895,-2,-26
896,2,-38
897,-4,-12
898,10,-14
899,8,30
900,16,12
901,6,18
902,2,10
903,-14,0
904,-18,-12
905,-16,-16
906,-12,-36
907,-20,-52
908,-12,-50
909,-14,-60
910,-16,-50
911,-26,-72
912,-10,74
913,-12,422
914,74,992
915,-82,996
916,-126,520
917,-94,-216
918,-116,-122
919,-98,-72
920,-32,-66
921,-28,-64
922,-18,-70
923,-16,-64
924,-16,-74
925,-14,-64
926,-14,-66
927,-10,-56
928,-12,-64
929,-10,-60
930,-14,-64
931,-12,-52
932,-12,-50
933,-12,-52
934,-12,-46
935,-20,-42
936,-18,-32
937,-24,-36
938,-24,-26
939,-30,-38
940,-36,-18
941,-36,-32
942,-42,-24
943,-44,-40
944,-46,-42
945,-50,-44
946,-48,-44
947,-42,-48
948,-38,-46
949,-30,-36
950,-22,-30
951,-12,-20
952,-6,-34
953,-2,-26
954,0,-36
955,4,-26
956,8,-34
957,10,-30
958,14,-46
959,12,-34
960,14,-40
961,14,-40
962,16,-42
963,12,-50
964,16,-40
965,18,-48
966,16,-44
967,18,-56
968,14,-48
969,12,-50
970,16,-40
971,14,-56
972,12,-52
973,16,-58
974,12,-50
975,16,-54
976,14,-56
977,18,-60
978,14,-58
979,18,-54
980,16,-62
981,16,-54
982,18,-66
983,16,-48
984,18,-60
985,20,-54
986,18,-64
987,18,-54
988,20,-46
989,30,-32
990,24,-32
991,32,-22
992,26,-8
993,46,18
994,34,14
995,26,4
996,20,-6
997,6,-20
998,6,-12
999,4,-26
1000,12,-56
1001,10,-68
1002,8,-58
1003,10,-58
1004,10,-62
1005,-2,-96
1006,30,94
1007,24,564
1008,128,1014
1009,-82,858
1010,-128,214
1011,-86,-236
1012,-104,-134
1013,-62,-58
1014,4,-78
1015,4,-76
1016,8,-84
1017,8,-70
1018,16,-76
1019,14,-74
1020,12,-78
1021,12,-72
1022,16,-66
1023,12,-66
1024,18,-60
1025,12,-68
1026,14,-52
1027,16,-58
1028,16,-46
1029,14,-52
1030,10,-46
1031,10,-36
1032,4,-30
1033,0,-40
1034,-6,-34
1035,-14,-36
1036,-24,-34
1037,-24,-38
1038,-34,-48
1039,-32,-50
1040,-34,-56
1041,-30,-42
1042,-20,-46
1043,-12,-36
1044,0,-40
1045,6,-20
1046,14,-28
1047,18,-22
1048,22,-30
1049,24,-32
1050,22,-26
1051,24,-28
1052,26,-26
1053,22,-34
1054,22,-28
1055,18,-30
1056,22,-24
1057,20,-38
1058,18,-32
1059,16,-38
1060,18,-26
1061,20,-36
1062,18,-34
1063,20,-44
1064,18,-34
1065,20,-36
1066,18,-38
1067,22,-40
1068,20,-48
1069,20,-36
1070,20,-44
1071,20,-40
1072,22,-48
1073,22,-42
1074,20,-44
1075,20,-36
1076,22,-46
1077,24,-40
1078,24,-42
1079,22,-36
1080,26,-36
1081,26,-32
1082,32,-24
1083,32,-16
1084,34,0
1085,34,-2
1086,54,42
1087,40,20
1088,34,38
1089,30,12
1090,14,6
1091,12,-10
1092,16,-6
1093,18,-40
1094,16,-40
1095,18,-52
1096,16,-46
1097,16,-46
1098,8,-72
1099,30,116
1100,20,556
1101,140,1000
1102,-74,828
1103,-124,184
1104,-84,-222
1105,-104,-116
1106,-66,-58
1107,-2,-46
1108,0,-62
1109,4,-56
1110,6,-64
1111,6,-56
1112,10,-56
1113,10,-46
1114,12,-50
1115,12,-48
1116,12,-38
1117,14,-40
1118,14,-32
1119,12,-38
1120,12,-30
1121,8,-26
1122,12,-14
1123,6,-22
1124,4,-12
1125,-4,-20
1126,-10,-2
1127,-14,-6
1128,-20,-6
1129,-26,-14
1130,-34,-16
1131,-38,-18
1132,-36,-24
1133,-38,-22
1134,-32,-30
1135,-26,-10
1136,-12,-14
1137,0,0
1138,8,-8
1139,14,-2
1140,18,-4
1141,24,2
1142,28,-8
1143,26,-2
1144,26,-12
1145,24,-4
1146,24,-6
1147,20,-10
1148,24,-10
1149,22,-12
1150,22,-4
1151,22,-14
1152,22,-10
1153,22,-22
1154,20,-8
1155,22,-20
1156,26,-14
1157,24,-24
1158,24,-22
1159,24,-22
1160,26,-18
1161,28,-24
1162,26,-28
1163,28,-28
1164,26,-28
1165,26,-22
1166,26,-34
1167,28,-26
1168,28,-34
1169,28,-24
1170,28,-30
1171,28,-26
1172,28,-38
1173,30,-22
1174,30,-30
1175,30,-24
1176,30,-24
1177,34,-18
1178,40,-2
1179,32,4
1180,44,12
1181,38,34
1182,60,46
1183,36,42
1184,36,44
1185,22,14
1186,14,16
1187,18,8
1188,18,0
1189,18,-32
1190,18,-34
1191,16,-36
1192,16,-26
1193,12,-38
1194,2,-6
1195,28,242
1196,66,804
1197,34,1000
1198,-84,664
1199,-90,-104
1200,-116,-138
1201,-80,-74
1202,-28,-32
1203,-2,-40
1204,4,-52
1205,0,-50
1206,4,-46
1207,2,-46
1208,10,-38
1209,6,-44
1210,4,-44
1211,2,-42
1212,2,-26
1213,2,-36
1214,2,-26
1215,-4,-34
1216,-6,-14
1217,-6,-22
1218,-8,-12
1219,-16,-14
1220,-20,-6
1221,-30,-2
1222,-32,-2
1223,-38,-4
1224,-50,-14
1225,-54,-8
1226,-58,-18
1227,-62,-10
1228,-62,-30
1229,-56,-24
1230,-50,-20
1231,-40,-10
1232,-24,-6
1233,-16,2
1234,-10,-4
1235,2,8
1236,10,8
1237,10,4
1238,16,4
1239,14,-4
1240,16,8
1241,16,-2
1242,14,6
1243,16,-6
1244,16,2
1245,16,-8
1246,14,0
1247,14,-12
1248,14,-8
1249,12,-8
1250,18,-8
1251,16,-12
1252,14,-14
1253,16,-12
1254,14,-10
1255,16,-6
1256,16,-16
1257,14,-10
1258,12,-22
1259,18,-10
1260,16,-16
1261,14,-14
1262,16,-24
1263,18,-16
1264,16,-18
1265,16,-14
1266,16,-16
1267,12,-28
1268,16,-12
1269,14,-18
1270,14,-12
1271,12,-22
1272,14,-10
1273,20,2
1274,24,10
1275,20,8
1276,28,18
1277,44,52
1278,38,48
1279,28,50
