,0,1
0,22,10
1,16,8
2,10,6
3,14,12
4,14,16
5,14,10
6,16,14
7,14,14
8,14,16
9,2,8
10,18,14
11,20,12
12,14,14
13,20,10
14,20,10
15,24,10
16,16,30
17,16,38
18,8,28
19,22,40
20,34,20
21,36,4
22,40,-2
23,38,-6
24,40,-16
25,48,-12
26,36,-18
27,42,-24
28,36,-10
29,30,-12
30,28,-20
31,30,-18
32,30,-16
33,36,-20
34,30,-24
35,26,-18
36,24,-18
37,22,-20
38,26,-20
39,22,-14
40,28,-12
41,26,-20
42,28,-18
43,22,-18
44,20,-12
45,16,-20
46,30,-10
47,36,-10
48,74,6
49,146,26
50,296,-82
51,490,-454
52,498,-700
53,326,-818
54,148,-754
55,82,-548
56,-18,-426
57,-84,-310
58,-112,-216
59,-86,-140
60,-90,-110
61,-62,-56
62,-34,4
63,-14,40
64,-16,40
65,-30,38
66,-20,44
67,-22,56
68,-38,54
69,-30,58
70,-40,56
71,-54,70
72,-52,72
73,-44,86
74,-78,86
75,-68,104
76,-56,104
77,-78,110
78,-98,118
79,-112,130
80,-114,144
81,-126,150
82,-140,158
83,-152,160
84,-152,178
85,-158,174
86,-162,166
87,-154,170
88,-132,154
89,-104,140
90,-66,120
91,-34,100
92,-10,80
93,10,58
94,16,32
95,10,22
96,20,6
97,12,0
98,10,-4
99,14,-2
100,20,-6
101,14,-6
102,12,-8
103,12,-6
104,0,-4
105,0,-10
106,0,-10
107,-4,-8
108,-6,-4
109,0,-4
110,-2,-2
111,4,-2
112,0,2
113,-8,0
114,-2,0
115,6,6
116,4,2
117,10,4
118,10,2
119,10,2
120,18,4
121,4,16
122,0,26
123,6,28
124,10,36
125,14,28
126,26,6
127,36,12
128,28,0
129,32,-4
130,28,-12
131,26,-6
132,24,-12
133,26,-2
134,18,-4
135,22,-4
136,22,-4
137,20,-10
138,18,-12
139,18,-10
140,14,-10
141,20,-12
142,20,-12
143,20,-10
144,20,-10
145,22,-12
146,24,-12
147,22,-14
148,24,-12
149,22,-12
150,26,-14
151,28,-12
152,32,-8
153,56,-4
154,134,22
155,192,-8
156,402,-224
157,538,-574
158,476,-718
159,302,-742
160,178,-608
161,92,-448
162,-12,-330
163,-92,-242
164,-110,-158
165,-98,-112
166,-64,-64
167,-42,-10
168,-28,28
169,-26,40
170,-28,44
171,-28,46
172,-30,50
173,-36,52
174,-40,54
175,-38,62
176,-46,62
177,-48,66
178,-46,74
179,-58,80
180,-60,84
181,-62,94
182,-80,98
183,-88,110
184,-92,118
185,-106,130
186,-112,138
187,-116,152
188,-134,156
189,-138,162
190,-138,168
191,-150,170
192,-146,168
193,-122,166
194,-98,152
195,-70,140
196,-38,124
197,-6,106
198,20,84
199,32,66
200,34,50
201,42,40
202,44,30
203,40,18
204,40,18
205,42,16
206,42,14
207,34,10
208,26,10
209,28,12
210,26,10
211,30,12
212,22,10
213,22,14
214,28,16
215,22,10
216,20,12
217,20,14
218,20,12
219,22,10
220,28,10
221,28,12
222,28,16
223,32,10
224,26,10
225,24,10
226,26,20
227,18,38
228,16,36
229,28,40
230,36,36
231,42,16
232,44,6
233,48,-2
234,36,-8
235,40,-12
236,38,-8
237,34,-10
238,40,-4
239,30,-2
240,24,-6
241,30,-8
242,22,-10
243,18,-10
244,24,-4
245,24,-4
246,24,-4
247,32,-10
248,26,-4
249,22,-6
250,30,-6
251,18,-10
252,16,-10
253,28,-4
254,28,-6
255,24,-8
256,28,2
257,34,-4
258,44,0
259,100,20
260,156,4
261,350,-182
262,508,-562
263,476,-712
264,292,-768
265,140,-674
266,70,-500
267,-8,-368
268,-114,-272
269,-122,-174
270,-100,-120
271,-66,-74
272,-46,-22
273,-34,28
274,-20,52
275,-38,50
276,-38,56
277,-32,62
278,-34,60
279,-42,68
280,-46,78
281,-56,80
282,-54,86
283,-44,90
284,-70,94
285,-74,100
286,-74,104
287,-94,114
288,-100,124
289,-100,132
290,-96,140
291,-122,150
292,-136,158
293,-154,170
294,-162,176
295,-176,174
296,-172,178
297,-170,182
298,-162,168
299,-124,156
300,-110,140
301,-70,124
302,-38,102
303,-20,76
304,2,62
305,6,48
306,16,28
307,-4,12
308,6,22
309,10,14
310,14,8
311,8,4
312,-10,8
313,6,16
314,-12,6
315,-4,10
316,4,10
317,-14,8
318,-6,14
319,-18,6
320,-20,8
321,-18,16
322,-26,6
323,-8,8
324,-24,10
325,-8,14
326,0,8
327,-24,8
328,-16,10
329,-12,6
330,-14,6
331,-12,0
332,-8,-4
333,-24,22
334,-14,30
335,-24,28
336,-16,32
337,0,18
338,-6,-4
339,-4,-6
340,6,-6
341,10,-14
342,8,-18
343,0,-20
344,10,-18
345,-14,-14
346,-2,-18
347,-10,-16
348,-24,-18
349,4,-20
350,-22,-22
351,-22,-22
352,-18,-12
353,2,-18
354,-30,-22
355,-24,-26
356,-20,-18
357,-26,-18
358,-18,-20
359,-12,-20
360,-26,-16
361,-20,-14
362,-16,-20
363,-20,-24
364,-14,-12
365,30,0
366,104,20
367,276,-72
368,486,-416
369,478,-646
370,338,-754
371,132,-664
372,64,-464
373,-60,-356
374,-158,-242
375,-174,-168
376,-158,-112
377,-130,-72
378,-108,-36
379,-86,14
380,-86,42
381,-90,40
382,-94,40
383,-96,44
384,-94,48
385,-88,50
386,-100,56
387,-106,56
388,-108,68
389,-114,68
390,-124,70
391,-128,80
392,-130,86
393,-138,96
394,-140,106
395,-152,112
396,-158,126
397,-172,130
398,-188,140
399,-206,146
400,-218,152
401,-220,160
402,-230,162
403,-222,164
404,-204,160
405,-190,152
406,-158,136
407,-124,118
408,-92,102
409,-54,84
410,-34,60
411,-18,46
412,-14,32
413,-10,18
414,-18,10
415,-22,8
416,-18,6
417,-20,8
418,-22,6
419,-20,8
420,-24,10
421,-26,6
422,-26,8
423,-32,8
424,-36,6
425,-34,6
426,-36,4
427,-32,6
428,-22,10
429,-28,8
430,-24,8
431,-16,6
432,-24,6
433,-22,6
434,-18,6
435,-18,4
436,-12,8
437,-12,10
438,-18,26
439,-12,42
440,-14,38
441,-22,42
442,-4,34
443,6,10
444,4,10
445,10,2
446,14,-2
447,14,-4
448,12,-4
449,4,-10
450,2,0
451,-4,4
452,-2,0
453,-8,-2
454,-2,-2
455,2,0
456,-4,-2
457,-4,-4
458,-4,0
459,-6,-2
460,-8,-4
461,-2,0
462,-2,-2
463,-2,-2
464,-2,-2
465,-2,-2
466,-2,0
467,-6,-6
468,-6,-6
469,-6,-6
470,14,4
471,66,22
472,128,22
473,314,-136
474,494,-484
475,506,-642
476,344,-700
477,176,-606
478,124,-442
479,-6,-334
480,-134,-246
481,-142,-162
482,-122,-108
483,-106,-68
484,-78,-20
485,-64,34
486,-58,56
487,-64,56
488,-64,60
489,-60,64
490,-64,72
491,-64,72
492,-68,72
493,-82,78
494,-84,86
495,-84,90
496,-98,92
497,-94,100
498,-102,114
499,-110,118
500,-118,124
501,-124,136
502,-148,144
503,-156,150
504,-164,160
505,-178,170
506,-182,176
507,-192,182
508,-196,184
509,-186,184
510,-178,180
511,-170,166
512,-132,154
513,-98,140
514,-72,124
515,-32,102
516,-16,84
517,-6,70
518,-4,52
519,-8,42
520,-12,34
521,-8,36
522,-10,34
523,-14,34
524,-16,36
525,-16,38
526,-22,38
527,-22,36
528,-24,36
529,-40,40
530,-32,40
531,-30,44
532,-36,44
533,-34,48
534,-28,48
535,-34,50
536,-42,48
537,-32,48
538,-40,50
539,-30,48
540,-26,46
541,-22,48
542,-24,42
543,-16,50
544,-26,58
545,-30,74
546,-26,74
547,-22,80
548,-8,68
549,8,44
550,0,42
551,-2,32
552,6,32
553,-2,24
554,-6,28
555,-4,20
556,-8,32
557,-10,32
558,-14,30
559,-10,30
560,-18,32
561,-8,32
562,-28,26
563,-16,24
564,-8,20
565,-20,24
566,-18,18
567,-14,22
568,-10,20
569,-20,14
570,-12,12
571,-20,18
572,-10,12
573,-4,12
574,-14,8
575,-4,10
576,12,12
577,80,36
578,158,4
579,368,-242
580,482,-602
581,406,-746
582,192,-766
583,88,-620
584,-2,-458
585,-70,-328
586,-134,-230
587,-156,-152
588,-134,-108
589,-118,-54
590,-86,-6
591,-50,40
592,-62,56
593,-52,60
594,-54,64
595,-64,70
596,-64,70
597,-74,72
598,-76,80
599,-74,84
600,-70,84
601,-76,94
602,-98,98
603,-84,104
604,-80,112
605,-102,116
606,-116,128
607,-120,132
608,-138,150
609,-142,150
610,-150,164
611,-162,178
612,-170,178
613,-182,184
614,-206,182
615,-190,184
616,-174,174
617,-150,162
618,-120,136
619,-70,132
620,-62,106
621,-24,84
622,-18,62
623,-12,42
624,4,30
625,-2,18
626,2,16
627,0,12
628,-2,14
629,-4,6
630,0,8
631,-12,4
632,-18,8
633,-14,0
634,-14,6
635,-16,4
636,-14,8
637,-22,2
638,-20,4
639,-14,6
640,-26,4
641,-18,6
642,-16,6
643,-6,8
644,-14,8
645,0,6
646,-16,6
647,-8,2
648,-8,2
649,-22,4
650,-10,20
651,-6,38
652,-14,30
653,-12,38
654,-2,30
655,8,18
656,4,10
657,6,-2
658,6,-2
659,10,-4
660,14,-6
661,8,-12
662,14,-6
663,6,2
664,0,-14
665,-4,-12
666,-10,-14
667,0,-12
668,-6,-16
669,-4,-20
670,4,-14
671,-4,-16
672,2,-16
673,-6,-18
674,-6,-16
675,0,-12
676,4,-12
677,-2,-16
678,4,-16
679,6,-10
680,0,-16
681,14,-18
682,42,-14
683,108,20
684,190,-22
685,418,-278
686,518,-610
687,422,-742
688,226,-730
689,124,-562
690,12,-426
691,-76,-296
692,-136,-214
693,-136,-146
694,-120,-102
695,-96,-52
696,-62,4
697,-46,36
698,-56,44
699,-54,48
700,-62,48
701,-70,52
702,-64,60
703,-66,64
704,-76,64
705,-76,68
706,-76,78
707,-86,84
708,-88,84
709,-100,92
710,-108,100
711,-110,110
712,-118,116
713,-130,124
714,-134,136
715,-146,148
716,-160,152
717,-174,160
718,-188,166
719,-198,174
720,-194,176
721,-186,176
722,-172,168
723,-148,164
724,-112,144
725,-84,130
726,-54,110
727,-20,88
728,-6,72
729,4,50
730,14,40
731,12,30
732,8,26
733,12,20
734,4,20
735,2,16
736,4,16
737,-2,20
738,0,20
739,2,20
740,-2,18
741,0,22
742,0,18
743,-8,20
744,-6,20
745,0,24
746,4,24
747,4,20
748,14,18
749,14,20
750,14,16
751,14,14
752,8,12
753,10,16
754,12,14
755,4,22
756,4,38
757,16,40
758,6,42
759,16,30
760,26,14
761,24,8
762,22,0
763,28,-4
764,30,-8
765,36,-2
766,28,-8
767,24,0
768,22,0
769,16,-6
770,12,-4
771,12,-6
772,20,-4
773,16,-4
774,18,-6
775,22,-4
776,22,-6
777,20,-6
778,14,-8
779,14,-4
780,18,-2
781,24,-4
782,22,0
783,24,0
784,30,2
785,32,0
786,28,4
787,38,4
788,86,28
789,148,36
790,304,-112
791,492,-456
792,532,-636
793,382,-718
794,192,-652
795,138,-474
796,16,-354
797,-106,-254
798,-114,-168
799,-96,-106
800,-74,-66
801,-50,-16
802,-30,36
803,-18,64
804,-30,64
805,-32,62
806,-38,64
807,-34,68
808,-26,68
809,-40,72
810,-42,72
811,-42,82
812,-46,82
813,-64,86
814,-66,88
815,-70,96
816,-72,102
817,-84,112
818,-92,116
819,-108,128
820,-112,138
821,-116,148
822,-152,148
823,-154,166
824,-158,168
825,-178,172
826,-168,170
827,-152,170
828,-126,158
829,-116,146
830,-70,128
831,-50,112
832,-20,100
833,0,74
834,24,52
835,30,40
836,20,36
837,28,22
838,16,12
839,30,10
840,14,10
841,12,6
842,28,8
843,18,6
844,18,6
845,22,4
846,2,4
847,20,6
848,4,0
849,8,4
850,8,6
851,-2,8
852,20,6
853,6,10
854,26,6
855,28,6
856,12,-4
857,12,6
858,28,2
859,18,-2
860,22,0
861,24,6
862,18,20
863,32,22
864,20,26
865,22,20
866,32,16
867,48,-14
868,28,0
869,40,-14
870,50,-20
871,58,-16
872,48,-26
873,48,-28
874,32,-12
875,34,-20
876,24,-20
877,34,-24
878,28,-24
879,34,-26
880,28,-20
881,28,-22
882,22,-28
883,16,-22
884,10,-28
885,34,-22
886,20,-20
887,30,-26
888,16,-20
889,20,-28
890,18,-22
891,32,-24
892,18,-30
893,32,-18
894,82,-10
895,146,12
896,312,-100
897,512,-450
898,516,-676
899,374,-774
900,152,-670
901,106,-470
902,-20,-370
903,-108,-268
904,-132,-188
905,-100,-126
906,-92,-98
907,-70,-56
908,-52,0
909,-48,26
910,-56,20
911,-52,22
912,-50,28
913,-44,32
914,-58,36
915,-54,38
916,-60,44
917,-64,50
918,-76,48
919,-74,56
920,-80,64
921,-84,74
922,-92,80
923,-104,86
924,-102,98
925,-122,102
926,-140,112
927,-142,120
928,-164,130
929,-172,140
930,-180,146
931,-192,146
932,-190,152
933,-172,150
934,-162,138
935,-132,122
936,-92,108
937,-56,92
938,-24,68
939,-4,50
940,12,38
941,14,22
942,16,8
943,4,2
944,12,0
945,10,2
946,4,-4
947,12,-2
948,10,4
949,0,4
950,4,0
951,-6,2
952,-10,4
953,-6,10
954,-6,6
955,-14,6
956,0,12
957,6,8
958,0,6
959,4,0
960,4,6
961,4,6
962,4,0
963,12,0
964,8,2
965,14,2
966,14,4
967,6,12
968,6,22
969,2,22
970,6,22
971,18,6
972,24,-8
973,28,-6
974,26,-16
975,34,-22
976,32,-20
977,24,-20
978,24,-24
979,16,-14
980,20,-14
981,20,-18
982,16,-18
983,18,-18
984,20,-18
985,16,-16
986,12,-18
987,14,-18
988,10,-18
989,14,-14
990,16,-12
991,12,-12
992,12,-10
993,18,-8
994,6,-12
995,10,-10
996,12,-8
997,16,-8
998,20,-8
999,54,4
1000,130,30
1001,248,-52
1002,458,-376
1003,554,-604
1004,464,-714
1005,262,-658
1006,186,-492
1007,50,-382
1008,-78,-272
1009,-116,-190
1010,-108,-132
1011,-96,-102
1012,-76,-42
1013,-54,14
1014,-36,36
1015,-42,38
1016,-44,44
1017,-44,52
1018,-48,50
1019,-52,52
1020,-54,58
1021,-68,62
1022,-68,64
1023,-66,72
1024,-78,78
1025,-78,80
1026,-84,88
1027,-88,94
1028,-96,102
1029,-108,110
1030,-122,118
1031,-128,130
1032,-138,138
1033,-158,146
1034,-162,154
1035,-164,164
1036,-178,166
1037,-178,168
1038,-170,164
1039,-156,156
1040,-128,146
1041,-92,134
1042,-60,116
1043,-26,100
1044,-2,82
1045,8,62
1046,6,46
1047,14,34
1048,10,26
1049,12,22
1050,16,22
1051,18,20
1052,10,20
1053,12,20
1054,10,20
1055,4,20
1056,6,20
1057,0,24
1058,0,20
1059,6,22
1060,2,26
1061,2,26
1062,8,24
1063,8,24
1064,4,20
1065,8,22
1066,10,20
1067,12,20
1068,20,18
1069,18,18
1070,20,18
1071,24,18
1072,8,32
1073,6,48
1074,14,42
1075,16,46
1076,22,34
1077,32,12
1078,36,14
1079,36,0
1080,32,-6
1081,24,-2
1082,30,0
1083,26,-4
1084,18,4
1085,14,6
1086,18,4
1087,16,0
1088,14,-2
1089,10,-4
1090,12,-2
1091,4,-8
1092,14,-6
1093,12,-4
1094,12,-6
1095,18,-2
1096,10,-10
1097,10,-4
1098,12,-6
1099,10,-2
1100,12,-4
1101,16,0
1102,16,-2
1103,22,-6
1104,32,4
1105,102,28
1106,170,-12
1107,356,-254
1108,498,-584
1109,462,-704
1110,278,-722
1111,146,-598
1112,74,-444
1113,-8,-324
1114,-110,-242
1115,-122,-162
1116,-108,-112
1117,-82,-70
1118,-58,-14
1119,-34,32
1120,-30,52
1121,-36,56
1122,-34,60
1123,-30,64
1124,-44,66
1125,-42,70
1126,-42,80
1127,-56,80
1128,-52,84
1129,-52,92
1130,-60,100
1131,-66,100
1132,-70,106
1133,-78,116
1134,-104,128
1135,-100,134
1136,-108,140
1137,-122,154
1138,-132,162
1139,-146,172
1140,-152,178
1141,-156,182
1142,-176,178
1143,-176,180
1144,-148,172
1145,-140,166
1146,-102,150
1147,-64,136
1148,-40,110
1149,-8,92
1150,2,70
1151,10,52
1152,16,36
1153,14,28
1154,16,18
1155,24,14
1156,24,10
1157,26,8
1158,20,6
1159,18,2
1160,18,4
1161,8,0
1162,10,2
1163,10,0
1164,16,2
1165,10,8
1166,0,2
1167,8,2
1168,8,2
1169,-2,4
1170,0,0
1171,16,2
1172,12,-2
1173,4,4
1174,20,2
1175,12,-10
1176,18,-8
1177,0,-2
1178,0,12
1179,14,22
1180,0,20
1181,16,26
1182,36,18
1183,24,-6
1184,32,0
1185,20,-14
1186,32,-16
1187,30,-24
1188,36,-20
1189,34,-32
1190,22,-12
1191,22,-14
1192,18,-20
1193,12,-26
1194,0,-20
1195,24,-24
1196,12,-30
1197,14,-22
1198,18,-22
1199,14,-24
1200,6,-28
1201,30,-20
1202,-6,-24
1203,20,-20
1204,22,-24
1205,4,-22
1206,12,-22
1207,20,-16
1208,28,-22
1209,18,-22
1210,52,-12
1211,140,14
1212,238,-76
1213,466,-414
1214,498,-686
1215,376,-820
1216,170,-734
1217,88,-532
1218,-8,-428
1219,-106,-298
1220,-120,-206
1221,-126,-146
1222,-86,-102
1223,-74,-58
1224,-50,6
1225,-34,34
1226,-42,32
1227,-36,34
1228,-44,34
1229,-56,42
1230,-50,48
1231,-48,44
1232,-54,54
1233,-52,60
1234,-60,62
1235,-62,68
1236,-70,72
1237,-76,80
1238,-80,88
1239,-90,96
1240,-92,104
1241,-102,116
1242,-110,126
1243,-124,136
1244,-140,140
1245,-162,152
1246,-170,154
1247,-178,162
1248,-174,160
1249,-156,158
1250,-140,152
1251,-116,140
1252,-78,124
1253,-50,100
1254,-30,82
1255,-2,64
1256,12,46
1257,10,32
1258,16,22
1259,12,14
1260,14,10
1261,16,6
1262,6,6
1263,6,6
1264,8,4
1265,0,4
1266,-6,6
1267,2,6
1268,0,14
1269,-6,8
1270,-4,10
1271,-10,8
1272,-8,8
1273,-6,8
1274,-2,6
1275,-2,4
1276,8,8
1277,2,4
1278,4,2
1279,6,-2
