,0,1
0,5,0
1,7,0
2,12,0
3,11,0
4,8,0
5,20,0
6,29,-4
7,27,-10
8,24,-12
9,21,-13
10,17,-10
11,5,-4
12,-1,0
13,-5,0
14,-6,0
15,-7,0
16,-5,0
17,-5,0
18,-3,0
19,-5,0
20,-10,1
21,-14,14
22,-7,7
23,25,-63
24,79,-169
25,108,-233
26,76,-197
27,19,-101
28,-4,-34
29,-11,-5
30,-12,6
31,-10,15
32,-5,20
33,-4,23
34,-4,23
35,-5,23
36,-5,23
37,-6,23
38,-5,23
39,-5,27
40,-5,26
41,-8,26
42,-8,28
43,-8,28
44,-8,28
45,-11,28
46,-13,27
47,-13,27
48,-12,28
49,-12,28
50,-15,28
51,-14,24
52,-13,23
53,-13,22
54,-11,19
55,-10,16
56,-6,15
57,-5,15
58,-5,11
59,-3,9
60,-1,7
61,0,4
62,0,2
63,2,0
64,4,0
65,6,0
66,7,0
67,7,0
68,9,0
69,7,0
70,4,0
71,4,0
72,5,0
73,7,0
74,6,0
75,4,0
76,4,0
77,5,0
78,5,2
79,5,3
80,3,0
81,3,0
82,2,2
83,3,1
84,3,0
85,5,0
86,4,0
87,4,0
88,2,0
89,2,0
90,6,0
91,13,0
92,18,0
93,23,0
94,25,-8
95,29,-12
96,28,-13
97,24,-13
98,20,-8
99,12,-2
100,4,0
101,0,0
102,0,0
103,0,0
104,0,0
105,1,0
106,1,0
107,2,0
108,0,4
109,-2,17
110,11,0
111,49,-83
112,98,-190
113,112,-237
114,68,-179
115,13,-83
116,-1,-24
117,-8,1
118,-13,11
119,-8,20
120,-5,23
121,-8,26
122,-7,27
123,-5,27
124,-10,24
125,-10,27
126,-11,28
127,-10,28
128,-6,28
129,-10,28
130,-12,27
131,-12,27
132,-12,28
133,-13,26
134,-13,26
135,-14,27
136,-11,24
137,-11,23
138,-13,19
139,-16,21
140,-19,19
141,-14,16
142,-13,15
143,-11,14
144,-10,10
145,-12,9
146,-10,9
147,-4,9
148,-1,6
149,-3,1
150,-2,0
151,0,0
152,0,0
153,2,0
154,6,0
155,7,0
156,2,0
157,3,0
158,5,0
159,2,0
160,1,0
161,7,0
162,7,0
163,4,0
164,3,0
165,2,0
166,6,0
167,5,3
168,3,2
169,1,0
170,2,0
171,3,0
172,3,3
173,1,2
174,3,0
175,5,0
176,6,0
177,5,0
178,9,0
179,9,2
180,16,0
181,25,0
182,30,-4
183,27,-8
184,22,-9
185,21,-9
186,18,-7
187,13,-2
188,4,0
189,-3,2
190,-4,2
191,-3,2
192,-5,3
193,-4,4
194,-2,4
195,0,3
196,-3,4
197,-5,10
198,9,-8
199,50,-90
200,101,-188
201,108,-221
202,62,-157
203,6,-66
204,-11,-15
205,-15,6
206,-15,18
207,-14,26
208,-11,28
209,-11,30
210,-13,29
211,-14,29
212,-14,33
213,-14,33
214,-15,33
215,-9,33
216,-13,29
217,-14,28
218,-14,28
219,-16,29
220,-17,30
221,-16,30
222,-16,30
223,-19,28
224,-22,28
225,-21,28
226,-21,26
227,-20,23
228,-20,23
229,-21,23
230,-21,23
231,-18,22
232,-17,21
233,-19,26
234,-19,29
235,-13,21
236,-6,9
237,-4,2
238,-3,0
239,-1,0
240,0,0
241,0,0
242,0,0
243,0,0
244,0,0
245,1,0
246,2,0
247,2,0
248,3,0
249,3,0
250,3,1
251,2,2
252,0,0
253,1,1
254,2,3
255,1,3
256,1,4
257,1,4
258,1,4
259,1,2
260,1,0
261,1,0
262,2,0
263,2,0
264,3,0
265,6,3
266,7,4
267,12,2
268,17,0
269,20,-2
270,23,-7
271,24,-10
272,22,-11
273,20,-8
274,13,-3
275,4,0
276,-1,0
277,-3,0
278,-4,0
279,-4,0
280,-2,0
281,-2,0
282,-3,0
283,-4,1
284,-7,9
285,-3,11
286,25,-44
287,80,-147
288,117,-229
289,95,-212
290,29,-113
291,-1,-39
292,-11,-4
293,-13,9
294,-13,20
295,-12,23
296,-12,23
297,-13,27
298,-12,28
299,-12,28
300,-10,28
301,-11,28
302,-12,28
303,-12,28
304,-13,27
305,-14,27
306,-13,28
307,-13,28
308,-15,28
309,-16,28
310,-17,28
311,-17,28
312,-20,28
313,-19,28
314,-19,24
315,-19,23
316,-17,21
317,-16,19
318,-15,17
319,-13,15
320,-13,13
321,-13,10
322,-12,9
323,-9,8
324,-5,5
325,-4,4
326,-3,2
327,-2,0
328,0,0
329,0,0
330,0,0
331,0,0
332,2,0
333,3,0
334,4,0
335,3,0
336,1,0
337,1,0
338,0,0
339,0,0
340,0,0
341,0,0
342,0,0
343,0,0
344,0,0
345,0,0
346,0,0
347,0,0
348,0,0
349,0,0
350,0,0
351,1,0
352,3,0
353,6,0
354,9,0
355,14,0
356,18,-3
357,20,-10
358,21,-13
359,21,-13
360,18,-11
361,9,-7
362,1,-1
363,-3,0
364,-5,0
365,-6,0
366,-7,0
367,-5,0
368,-5,0
369,-6,0
370,-7,0
371,-12,7
372,-9,12
373,18,-40
374,71,-145
375,110,-232
376,95,-224
377,29,-123
378,-2,-45
379,-12,-7
380,-16,5
381,-15,17
382,-13,23
383,-13,23
384,-13,24
385,-12,27
386,-13,28
387,-11,28
388,-13,28
389,-15,28
390,-15,28
391,-14,28
392,-14,28
393,-15,28
394,-16,28
395,-17,28
396,-17,28
397,-19,28
398,-20,28
399,-21,28
400,-20,27
401,-20,25
402,-21,23
403,-21,21
404,-19,19
405,-16,19
406,-16,16
407,-15,14
408,-13,13
409,-10,10
410,-8,8
411,-7,5
412,-5,2
413,-3,0
414,-1,0
415,0,0
416,0,0
417,1,0
418,2,0
419,2,0
420,1,0
421,1,0
422,2,0
423,2,0
424,2,0
425,2,0
426,3,0
427,3,0
428,3,0
429,2,0
430,2,0
431,1,0
432,0,0
433,0,0
434,0,0
435,0,0
436,0,0
437,0,0
438,3,0
439,4,0
440,4,0
441,7,0
442,13,0
443,15,0
444,17,-4
445,21,-8
446,24,-11
447,22,-13
448,17,-10
449,8,-4
450,2,0
451,-1,0
452,-4,0
453,-5,0
454,-4,0
455,-3,0
456,-1,0
457,-1,0
458,-5,1
459,-10,11
460,-4,15
461,25,-49
462,79,-160
463,111,-241
464,85,-215
465,18,-108
466,-4,-37
467,-10,-3
468,-12,9
469,-15,21
470,-12,22
471,-12,23
472,-9,27
473,-9,28
474,-15,28
475,-13,28
476,-14,28
477,-15,28
478,-15,28
479,-15,28
480,-12,28
481,-13,28
482,-16,28
483,-16,28
484,-17,28
485,-19,28
486,-20,28
487,-21,26
488,-22,24
489,-21,23
490,-21,21
491,-20,20
492,-18,17
493,-16,14
494,-16,14
495,-17,12
496,-16,9
497,-12,9
498,-9,8
499,-7,5
500,-8,4
501,-6,2
502,-2,0
503,-1,0
504,0,0
505,0,0
506,1,0
507,4,0
508,0,0
509,0,0
510,2,0
511,1,0
512,-1,0
513,0,0
514,1,0
515,0,0
516,0,3
517,0,4
518,0,2
519,0,3
520,0,4
521,0,2
522,3,2
523,0,2
524,0,0
525,0,0
526,1,0
527,2,0
528,4,0
529,9,0
530,11,0
531,12,0
532,17,-2
533,21,-7
534,25,-11
535,27,-11
536,21,-9
537,15,-6
538,7,-1
539,1,0
540,-1,0
541,-3,0
542,-2,0
543,0,0
544,0,0
545,-1,0
546,-4,0
547,-3,5
548,-4,20
549,10,-12
550,62,-113
551,111,-219
552,111,-238
553,34,-140
554,-2,-55
555,-9,-11
556,-10,6
557,-12,16
558,-9,22
559,-12,26
560,-13,27
561,-13,28
562,-13,27
563,-12,27
564,-6,27
565,-10,27
566,-15,27
567,-15,28
568,-12,27
569,-17,27
570,-16,27
571,-14,24
572,-15,23
573,-15,23
574,-19,25
575,-23,24
576,-22,25
577,-19,24
578,-19,21
579,-23,20
580,-22,17
581,-16,14
582,-15,14
583,-17,14
584,-15,13
585,-11,10
586,-9,7
587,-7,5
588,-4,4
589,-4,3
590,-2,2
591,0,0
592,2,0
593,4,0
594,0,0
595,1,0
596,3,0
597,1,0
598,1,0
599,2,0
600,3,1
601,3,0
602,1,0
603,1,2
604,2,3
605,2,4
606,0,4
607,1,4
608,2,4
609,0,4
610,0,4
611,0,4
612,1,2
613,2,1
614,2,0
615,2,0
616,3,2
617,5,4
618,10,4
619,15,3
620,20,0
621,24,-4
622,27,-9
623,29,-10
624,26,-8
625,19,-4
626,10,0
627,2,0
628,-2,0
629,-2,0
630,0,0
631,-1,0
632,-3,0
633,-3,0
634,-3,0
635,-5,3
636,-8,21
637,4,5
638,48,-82
639,110,-195
640,124,-242
641,60,-163
642,7,-69
643,-6,-17
644,-12,4
645,-16,15
646,-14,23
647,-12,27
648,-13,28
649,-13,28
650,-13,28
651,-13,28
652,-12,28
653,-12,28
654,-12,28
655,-13,28
656,-14,28
657,-15,28
658,-16,28
659,-16,29
660,-15,29
661,-16,28
662,-18,28
663,-18,28
664,-21,28
665,-22,28
666,-19,26
667,-18,23
668,-18,22
669,-17,21
670,-16,17
671,-15,14
672,-14,13
673,-13,12
674,-10,10
675,-9,5
676,-4,4
677,-3,3
678,-2,0
679,0,0
680,1,0
681,2,0
682,4,0
683,4,0
684,5,0
685,5,0
686,5,0
687,6,0
688,5,0
689,3,0
690,3,0
691,2,0
692,2,0
693,2,2
694,1,3
695,1,3
696,1,3
697,1,2
698,1,3
699,2,4
700,2,2
701,1,0
702,1,0
703,1,0
704,3,0
705,6,2
706,10,3
707,14,1
708,18,-2
709,22,-8
710,24,-10
711,22,-10
712,17,-9
713,10,-4
714,1,0
715,-2,0
716,-4,0
717,-3,0
718,-3,0
719,-3,0
720,-5,0
721,-5,0
722,-5,0
723,-8,7
724,-8,21
725,19,-36
726,81,-151
727,120,-243
728,97,-221
729,27,-116
730,-2,-41
731,-11,-5
732,-14,7
733,-15,18
734,-13,23
735,-12,27
736,-12,28
737,-12,28
738,-12,28
739,-13,28
740,-13,28
741,-13,28
742,-14,28
743,-15,28
744,-16,28
745,-16,28
746,-17,28
747,-18,28
748,-17,28
749,-18,28
750,-21,28
751,-21,28
752,-21,28
753,-21,26
754,-21,23
755,-20,22
756,-17,19
757,-17,16
758,-16,14
759,-13,15
760,-12,12
761,-11,9
762,-10,8
763,-6,5
764,-4,3
765,-1,1
766,0,0
767,0,0
768,0,0
769,0,0
770,1,0
771,2,0
772,4,0
773,5,0
774,3,0
775,2,0
776,2,0
777,2,0
778,2,0
779,2,0
780,1,0
781,0,0
782,1,0
783,2,1
784,2,3
785,1,1
786,1,0
787,1,0
788,1,0
789,1,0
790,1,0
791,1,0
792,4,0
793,8,1
794,12,0
795,16,-1
796,19,-6
797,23,-10
798,23,-13
799,21,-12
800,16,-8
801,8,-2
802,0,0
803,-3,0
804,-6,0
805,-6,0
806,-6,0
807,-5,0
808,-5,0
809,-6,0
810,-8,0
811,-13,18
812,-2,8
813,39,-80
814,98,-194
815,113,-248
816,62,-179
817,10,-85
818,-7,-26
819,-14,-2
820,-14,11
821,-14,21
822,-11,23
823,-11,23
824,-11,23
825,-8,25
826,-8,26
827,-11,27
828,-12,27
829,-13,28
830,-13,28
831,-14,28
832,-16,28
833,-15,28
834,-14,28
835,-16,28
836,-16,28
837,-15,27
838,-16,27
839,-18,26
840,-21,23
841,-21,23
842,-21,21
843,-19,18
844,-14,16
845,-14,14
846,-15,13
847,-14,9
848,-9,8
849,-9,6
850,-10,3
851,-5,1
852,-2,2
853,-5,0
854,-2,0
855,0,0
856,0,0
857,1,0
858,2,-2
859,2,-1
860,4,0
861,4,0
862,2,0
863,3,0
864,2,0
865,2,0
866,2,0
867,0,0
868,-1,0
869,0,0
870,1,0
871,0,0
872,1,0
873,0,1
874,-1,0
875,-1,0
876,0,0
877,0,0
878,-1,0
879,0,0
880,2,0
881,5,0
882,7,0
883,12,1
884,17,-3
885,23,-10
886,22,-13
887,20,-12
888,18,-9
889,11,-4
890,1,0
891,-3,0
892,-4,0
893,-4,0
894,-5,0
895,-4,0
896,-3,0
897,-3,0
898,-4,0
899,-12,13
900,-6,20
901,24,-39
902,78,-152
903,112,-236
904,84,-207
905,24,-112
906,-2,-42
907,-11,-7
908,-15,11
909,-15,20
910,-14,25
911,-14,27
912,-14,28
913,-12,28
914,-15,28
915,-18,28
916,-15,28
917,-14,28
918,-16,28
919,-19,28
920,-20,29
921,-16,28
922,-14,28
923,-15,28
924,-19,28
925,-22,28
926,-25,28
927,-24,28
928,-23,27
929,-22,27
930,-22,25
931,-22,21
932,-22,19
933,-21,15
934,-17,15
935,-15,14
936,-13,13
937,-10,9
938,-9,8
939,-9,7
940,-1,2
941,-2,0
942,-1,0
943,3,0
944,3,0
945,2,0
946,2,0
947,-2,0
948,0,0
949,0,0
950,1,0
951,0,0
952,-1,0
953,0,0
954,0,0
955,0,0
956,1,0
957,1,0
958,1,0
959,0,1
960,0,1
961,1,0
962,1,1
963,0,2
964,1,1
965,0,1
966,-1,0
967,-1,0
968,1,0
969,6,0
970,11,2
971,13,1
972,15,-1
973,20,-6
974,23,-11
975,21,-11
976,19,-8
977,11,-4
978,0,0
979,-3,0
980,-7,0
981,-8,0
982,-6,0
983,-5,0
984,-5,0
985,-6,0
986,-6,0
987,-7,2
988,-9,22
989,5,-3
990,52,-90
991,101,-194
992,108,-227
993,51,-154
994,5,-68
995,-12,-16
996,-17,4
997,-19,17
998,-18,25
999,-16,28
1000,-16,28
1001,-15,28
1002,-15,29
1003,-16,29
1004,-16,31
1005,-16,31
1006,-17,29
1007,-16,30
1008,-16,29
1009,-19,28
1010,-21,28
1011,-20,28
1012,-19,28
1013,-20,28
1014,-23,28
1015,-22,28
1016,-22,27
1017,-21,26
1018,-20,23
1019,-21,22
1020,-20,21
1021,-18,19
1022,-16,18
1023,-16,14
1024,-16,14
1025,-15,10
1026,-12,9
1027,-9,9
1028,-7,8
1029,-3,4
1030,-3,3
1031,-2,0
1032,0,0
1033,0,0
1034,1,0
1035,2,0
1036,3,0
1037,3,0
1038,2,0
1039,2,0
1040,2,0
1041,2,0
1042,2,0
1043,2,0
1044,2,0
1045,0,1
1046,0,2
1047,1,2
1048,2,2
1049,3,1
1050,1,0
1051,1,0
1052,0,1
1053,0,0
1054,0,0
1055,1,0
1056,2,0
1057,5,1
1058,7,3
1059,12,2
1060,15,0
1061,20,-4
1062,23,-10
1063,22,-12
1064,20,-11
1065,17,-6
1066,4,-2
1067,0,0
1068,-5,0
1069,-7,0
1070,-5,0
1071,-5,0
1072,-5,0
1073,-6,0
1074,-6,0
1075,-8,1
1076,-12,20
1077,-1,5
1078,38,-77
1079,92,-185
1080,110,-236
1081,63,-178
1082,12,-86
1083,-10,-26
1084,-17,0
1085,-20,14
1086,-19,23
1087,-18,27
1088,-19,28
1089,-17,28
1090,-16,28
1091,-16,29
1092,-17,29
1093,-16,31
1094,-16,31
1095,-17,29
1096,-17,29
1097,-17,31
1098,-18,32
1099,-21,29
1100,-21,29
1101,-22,32
1102,-24,28
1103,-24,28
1104,-24,28
1105,-24,27
1106,-23,25
1107,-23,22
1108,-23,21
1109,-22,19
1110,-18,19
1111,-17,19
1112,-19,14
1113,-18,14
1114,-14,9
1115,-13,8
1116,-10,4
1117,-6,4
1118,-5,3
1119,-4,0
1120,-3,0
1121,-1,0
1122,0,0
1123,0,0
1124,0,0
1125,0,0
1126,1,0
1127,1,0
1128,1,0
1129,1,0
1130,0,0
1131,0,0
1132,0,1
1133,0,1
1134,0,2
1135,0,2
1136,-1,1
1137,0,2
1138,0,2
1139,-1,0
1140,-1,0
1141,-1,0
1142,-1,0
1143,0,0
1144,0,0
1145,2,0
1146,4,1
1147,9,0
1148,14,0
1149,19,-5
1150,22,-10
1151,21,-13
1152,20,-13
1153,15,-10
1154,4,-4
1155,0,0
1156,-6,0
1157,-7,0
1158,-7,0
1159,-6,0
1160,-6,0
1161,-6,0
1162,-7,0
1163,-10,0
1164,-13,16
1165,-4,6
1166,33,-70
1167,87,-178
1168,110,-236
1169,68,-189
1170,16,-96
1171,-8,-32
1172,-15,-4
1173,-16,11
1174,-15,20
1175,-14,24
1176,-15,26
1177,-15,28
1178,-15,28
1179,-14,28
1180,-15,28
1181,-16,28
1182,-17,29
1183,-19,28
1184,-18,28
1185,-16,28
1186,-18,29
1187,-21,28
1188,-20,28
1189,-19,28
1190,-22,28
1191,-23,27
1192,-24,26
1193,-24,23
1194,-24,23
1195,-24,23
1196,-22,21
1197,-21,19
1198,-18,19
1199,-17,14
1200,-17,14
1201,-16,13
1202,-14,9
1203,-12,8
1204,-10,4
1205,-8,4
1206,-6,1
1207,-3,0
1208,-1,0
1209,-1,0
1210,-2,0
1211,-2,0
1212,-1,0
1213,0,0
1214,0,0
1215,0,0
1216,0,0
1217,0,0
1218,1,0
1219,1,0
1220,0,0
1221,0,0
1222,0,0
1223,0,2
1224,-1,3
1225,-1,1
1226,0,0
1227,0,0
1228,-1,0
1229,-1,0
1230,0,0
1231,-1,0
1232,0,0
1233,1,0
1234,4,0
1235,6,0
1236,13,0
1237,14,-1
1238,16,-5
1239,21,-11
1240,23,-12
1241,22,-13
1242,13,-9
1243,1,-2
1244,-1,0
1245,-4,0
1246,-7,0
1247,-7,0
1248,-6,0
1249,-3,0
1250,-3,0
1251,-5,0
1252,-10,5
1253,-11,17
1254,7,-15
1255,57,-112
1256,104,-212
1257,100,-231
1258,48,-157
1259,5,-69
1260,-8,-18
1261,-13,2
1262,-14,15
1263,-14,24
1264,-14,28
1265,-14,28
1266,-16,28
1267,-15,28
1268,-13,28
1269,-14,28
1270,-13,28
1271,-13,28
1272,-17,28
1273,-17,28
1274,-17,28
1275,-20,28
1276,-20,28
1277,-16,28
1278,-17,27
1279,-21,24
