,0,1
0,-91,47
1,-86,47
2,-92,44
3,-95,45
4,-88,45
5,-86,45
6,-83,49
7,-79,41
8,-72,38
9,-67,37
10,-60,33
11,-59,28
12,-56,21
13,-47,15
14,-37,8
15,-26,5
16,-25,2
17,-15,0
18,-14,-4
19,-15,-1
20,-9,-8
21,-6,-8
22,-6,-7
23,-12,-2
24,-9,-1
25,-9,0
26,-14,0
27,-16,-4
28,-4,-3
29,-5,-4
30,0,0
31,10,7
32,29,9
33,41,8
34,44,10
35,41,7
36,24,-7
37,8,-12
38,-15,-9
39,-31,3
40,-36,6
41,-31,7
42,-32,4
43,-27,2
44,-28,-1
45,-29,-1
46,-31,0
47,-32,-2
48,-36,-4
49,-32,-7
50,-34,-5
51,-36,-5
52,-40,-3
53,-34,-5
54,-19,-5
55,10,-7
56,39,-23
57,62,-49
58,77,-83
59,85,-151
60,171,-258
61,272,-372
62,159,-382
63,-29,-186
64,-77,-64
65,-79,-3
66,-87,37
67,-93,44
68,-98,49
69,-100,51
70,-104,51
71,-108,52
72,-111,56
73,-113,55
74,-115,55
75,-115,55
76,-118,56
77,-120,57
78,-124,57
79,-124,62
80,-128,67
81,-130,66
82,-126,63
83,-123,66
84,-122,65
85,-121,62
86,-118,58
87,-114,51
88,-110,46
89,-104,40
90,-96,37
91,-94,29
92,-92,21
93,-84,19
94,-82,13
95,-74,11
96,-73,8
97,-74,6
98,-72,7
99,-71,4
100,-73,6
101,-69,6
102,-71,12
103,-66,10
104,-58,11
105,-50,14
106,-33,22
107,-18,28
108,-12,21
109,-11,21
110,-16,16
111,-34,2
112,-56,-2
113,-82,4
114,-96,14
115,-100,16
116,-100,13
117,-97,6
118,-96,4
119,-93,4
120,-93,3
121,-92,3
122,-91,2
123,-92,0
124,-92,-1
125,-94,0
126,-94,1
127,-87,2
128,-82,3
129,-70,0
130,-36,-3
131,-11,-12
132,4,-43
133,7,-83
134,31,-159
135,134,-272
136,230,-390
137,121,-374
138,-65,-187
139,-122,-62
140,-125,-2
141,-132,31
142,-135,43
143,-135,47
144,-135,45
145,-131,48
146,-135,50
147,-139,51
148,-142,53
149,-143,55
150,-137,56
151,-139,59
152,-140,62
153,-140,66
154,-141,66
155,-139,67
156,-138,66
157,-139,67
158,-140,67
159,-136,67
160,-131,64
161,-130,57
162,-122,54
163,-119,46
164,-112,35
165,-108,30
166,-101,25
167,-93,18
168,-85,16
169,-83,14
170,-79,11
171,-74,13
172,-73,10
173,-67,17
174,-67,18
175,-66,17
176,-61,18
177,-57,16
178,-57,21
179,-45,25
180,-27,31
181,-18,31
182,-10,28
183,-13,27
184,-30,12
185,-48,0
186,-69,4
187,-90,18
188,-97,24
189,-97,29
190,-94,19
191,-91,20
192,-90,15
193,-88,18
194,-86,20
195,-80,18
196,-84,17
197,-80,15
198,-81,19
199,-80,19
200,-80,16
201,-78,16
202,-72,13
203,-48,12
204,-20,10
205,3,-14
206,11,-42
207,11,-92
208,58,-192
209,187,-314
210,229,-404
211,49,-311
212,-87,-105
213,-113,-18
214,-117,27
215,-126,47
216,-126,57
217,-128,57
218,-128,57
219,-127,60
220,-130,59
221,-121,64
222,-125,69
223,-125,69
224,-126,70
225,-128,72
226,-126,67
227,-131,70
228,-126,75
229,-129,73
230,-133,77
231,-125,70
232,-126,69
233,-123,61
234,-117,60
235,-112,54
236,-106,52
237,-96,43
238,-95,39
239,-89,35
240,-84,26
241,-76,23
242,-68,20
243,-61,16
244,-57,14
245,-56,18
246,-55,13
247,-52,15
248,-51,15
249,-55,14
250,-53,15
251,-45,16
252,-48,13
253,-46,19
254,-30,23
255,-16,23
256,1,24
257,3,25
258,-1,18
259,-18,1
260,-40,-5
261,-63,1
262,-79,13
263,-84,14
264,-81,14
265,-74,6
266,-69,7
267,-68,7
268,-68,10
269,-70,8
270,-65,6
271,-61,1
272,-62,0
273,-65,1
274,-66,1
275,-65,0
276,-61,0
277,-45,-2
278,-19,0
279,14,-8
280,41,-36
281,57,-60
282,55,-120
283,102,-205
284,230,-329
285,216,-406
286,31,-283
287,-65,-106
288,-77,-31
289,-76,17
290,-88,39
291,-92,43
292,-90,46
293,-89,45
294,-90,46
295,-89,47
296,-85,49
297,-88,48
298,-85,46
299,-89,47
300,-90,51
301,-86,48
302,-87,46
303,-84,48
304,-82,52
305,-77,53
306,-74,53
307,-73,58
308,-68,52
309,-64,50
310,-55,47
311,-51,42
312,-42,39
313,-38,31
314,-33,28
315,-24,22
316,-10,17
317,-13,14
318,-14,11
319,-13,9
320,-6,7
321,-9,7
322,0,7
323,0,6
324,-3,5
325,-1,6
326,1,9
327,-2,9
328,0,9
329,6,10
330,7,14
331,13,17
332,32,25
333,49,30
334,59,28
335,61,32
336,50,19
337,31,5
338,10,3
339,-14,7
340,-28,17
341,-26,16
342,-27,13
343,-25,8
344,-25,11
345,-26,8
346,-28,10
347,-29,8
348,-27,9
349,-27,7
350,-27,8
351,-29,4
352,-32,5
353,-32,9
354,-28,7
355,-8,4
356,26,4
357,56,-11
358,77,-39
359,84,-83
360,97,-153
361,200,-268
362,281,-385
363,128,-360
364,-40,-158
365,-78,-49
366,-83,11
367,-95,43
368,-97,50
369,-99,55
370,-103,55
371,-103,55
372,-106,57
373,-107,57
374,-113,57
375,-114,61
376,-116,60
377,-115,59
378,-118,62
379,-116,67
380,-120,70
381,-120,70
382,-120,72
383,-120,70
384,-119,68
385,-116,64
386,-116,63
387,-114,62
388,-112,52
389,-109,48
390,-105,40
391,-99,34
392,-90,24
393,-86,19
394,-84,14
395,-77,13
396,-74,9
397,-74,6
398,-69,7
399,-69,7
400,-65,8
401,-63,6
402,-66,8
403,-60,12
404,-59,14
405,-56,17
406,-53,15
407,-42,18
408,-27,27
409,-15,25
410,-7,26
411,-8,23
412,-25,7
413,-44,0
414,-67,-3
415,-89,6
416,-97,16
417,-93,16
418,-93,10
419,-91,11
420,-88,8
421,-86,7
422,-86,11
423,-79,6
424,-77,10
425,-74,7
426,-78,4
427,-76,5
428,-80,6
429,-81,5
430,-68,6
431,-40,4
432,-12,-2
433,11,-26
434,14,-58
435,22,-119
436,90,-218
437,219,-343
438,204,-406
439,13,-266
440,-90,-91
441,-109,-16
442,-114,28
443,-117,50
444,-120,53
445,-118,54
446,-115,59
447,-115,59
448,-118,58
449,-118,62
450,-115,64
451,-117,69
452,-117,70
453,-119,71
454,-119,70
455,-120,74
456,-124,72
457,-120,76
458,-120,77
459,-120,77
460,-116,72
461,-113,71
462,-109,69
463,-103,67
464,-99,58
465,-96,51
466,-92,47
467,-84,38
468,-72,35
469,-66,32
470,-62,26
471,-55,21
472,-57,20
473,-53,21
474,-53,21
475,-51,21
476,-51,21
477,-46,21
478,-41,21
479,-38,21
480,-34,27
481,-16,32
482,-1,35
483,6,34
484,6,32
485,0,23
486,-17,5
487,-40,4
488,-61,11
489,-79,25
490,-78,26
491,-70,21
492,-64,16
493,-68,16
494,-68,14
495,-60,15
496,-61,17
497,-60,13
498,-61,11
499,-57,10
500,-61,7
501,-65,10
502,-60,8
503,-56,8
504,-36,10
505,-7,5
506,14,-12
507,26,-41
508,28,-89
509,60,-173
510,181,-292
511,266,-409
512,115,-367
513,-49,-148
514,-90,-39
515,-91,9
516,-100,40
517,-100,53
518,-107,56
519,-108,56
520,-107,56
521,-110,60
522,-101,59
523,-108,57
524,-112,56
525,-114,60
526,-113,60
527,-113,62
528,-109,61
529,-111,62
530,-115,59
531,-111,61
532,-104,63
533,-104,60
534,-101,58
535,-93,59
536,-89,55
537,-83,48
538,-76,42
539,-72,31
540,-69,32
541,-58,25
542,-54,22
543,-50,16
544,-44,16
545,-42,14
546,-44,12
547,-43,11
548,-41,8
549,-38,9
550,-34,8
551,-32,9
552,-35,10
553,-29,13
554,-27,14
555,-18,15
556,3,22
557,14,29
558,30,25
559,36,25
560,25,19
561,5,1
562,-13,2
563,-37,7
564,-50,13
565,-49,16
566,-45,16
567,-41,10
568,-38,9
569,-41,4
570,-38,2
571,-33,0
572,-29,0
573,-29,-1
574,-27,0
575,-30,0
576,-26,-2
577,-22,0
578,-18,0
579,-2,0
580,37,0
581,71,-16
582,94,-47
583,108,-76
584,121,-150
585,209,-256
586,288,-370
587,161,-356
588,3,-170
589,-34,-58
590,-34,3
591,-45,40
592,-57,47
593,-55,50
594,-47,45
595,-51,47
596,-48,46
597,-48,43
598,-49,49
599,-49,52
600,-49,56
601,-49,53
602,-49,55
603,-51,55
604,-49,56
605,-46,57
606,-42,61
607,-40,61
608,-40,57
609,-36,60
610,-32,54
611,-31,52
612,-28,51
613,-22,41
614,-20,34
615,-14,25
616,-15,18
617,-9,13
618,-4,11
619,0,4
620,4,3
621,1,2
622,4,2
623,3,6
624,6,5
625,8,3
626,5,6
627,4,8
628,2,10
629,1,10
630,6,9
631,3,10
632,9,14
633,28,17
634,41,20
635,50,16
636,44,16
637,27,2
638,8,-10
639,-16,-7
640,-42,4
641,-46,4
642,-49,8
643,-46,0
644,-42,0
645,-47,2
646,-47,0
647,-45,-1
648,-44,-1
649,-43,0
650,-42,0
651,-44,0
652,-50,0
653,-48,-1
654,-49,-1
655,-42,-2
656,-18,-3
657,15,-11
658,36,-34
659,52,-62
660,58,-122
661,110,-209
662,245,-334
663,240,-409
664,26,-280
665,-81,-101
666,-99,-28
667,-103,16
668,-113,40
669,-113,44
670,-107,47
671,-109,45
672,-113,45
673,-114,45
674,-114,45
675,-115,48
676,-116,47
677,-117,49
678,-119,48
679,-121,51
680,-125,53
681,-124,52
682,-123,56
683,-120,54
684,-118,48
685,-120,48
686,-116,46
687,-108,45
688,-103,44
689,-101,37
690,-96,31
691,-87,21
692,-80,17
693,-73,11
694,-69,12
695,-62,9
696,-60,5
697,-60,4
698,-53,0
699,-54,2
700,-51,5
701,-55,4
702,-50,4
703,-48,8
704,-44,6
705,-39,2
706,-30,11
707,-10,12
708,-3,21
709,7,19
710,5,20
711,-3,5
712,-22,-7
713,-43,-6
714,-65,7
715,-72,17
716,-74,16
717,-72,13
718,-69,9
719,-64,9
720,-67,7
721,-68,7
722,-63,8
723,-65,0
724,-63,0
725,-66,0
726,-61,1
727,-64,-2
728,-58,-3
729,-52,-1
730,-28,-2
731,0,-8
732,22,-31
733,31,-62
734,37,-108
735,87,-203
736,220,-328
737,244,-413
738,66,-311
739,-57,-119
740,-87,-35
741,-90,13
742,-96,33
743,-98,42
744,-97,44
745,-100,41
746,-102,45
747,-107,47
748,-103,45
749,-107,48
750,-105,46
751,-107,48
752,-107,48
753,-108,48
754,-112,50
755,-110,54
756,-108,54
757,-110,53
758,-102,54
759,-99,52
760,-95,55
761,-91,48
762,-89,43
763,-85,36
764,-79,33
765,-75,22
766,-69,19
767,-64,12
768,-63,3
769,-58,0
770,-51,-1
771,-49,-3
772,-49,-4
773,-48,-2
774,-48,0
775,-45,-2
776,-47,0
777,-37,-1
778,-35,0
779,-27,4
780,-7,9
781,2,15
782,12,13
783,14,10
784,7,3
785,-9,-9
786,-32,-17
787,-58,-7
788,-76,4
789,-73,1
790,-76,-1
791,-76,-5
792,-74,-5
793,-72,-8
794,-71,-9
795,-71,-11
796,-66,-13
797,-68,-13
798,-71,-9
799,-67,-12
800,-67,-11
801,-67,-11
802,-58,-13
803,-47,-13
804,-14,-13
805,15,-27
806,34,-51
807,38,-92
808,44,-166
809,129,-278
810,245,-409
811,165,-429
812,-31,-226
813,-89,-86
814,-93,-16
815,-103,17
816,-103,27
817,-105,30
818,-104,35
819,-108,34
820,-113,33
821,-107,35
822,-106,35
823,-104,39
824,-105,40
825,-106,41
826,-103,42
827,-105,43
828,-108,43
829,-104,42
830,-107,42
831,-103,44
832,-101,41
833,-102,46
834,-92,39
835,-91,35
836,-88,33
837,-77,24
838,-73,19
839,-65,12
840,-62,6
841,-53,2
842,-50,-2
843,-47,-3
844,-36,-2
845,-33,-3
846,-31,-1
847,-28,-2
848,-32,-2
849,-31,-1
850,-30,1
851,-25,0
852,-19,-3
853,-17,0
854,-17,2
855,-1,6
856,12,11
857,27,6
858,34,9
859,30,1
860,13,-14
861,-9,-16
862,-32,-18
863,-50,-9
864,-46,-2
865,-43,-3
866,-40,-6
867,-30,-11
868,-31,-12
869,-30,-14
870,-27,-15
871,-26,-14
872,-23,-14
873,-19,-16
874,-22,-15
875,-22,-17
876,-25,-17
877,-17,-18
878,-8,-21
879,15,-24
880,53,-37
881,83,-61
882,101,-92
883,103,-153
884,165,-245
885,269,-367
886,212,-410
887,28,-260
888,-36,-112
889,-42,-42
890,-46,2
891,-54,18
892,-56,22
893,-56,25
894,-56,24
895,-56,24
896,-56,25
897,-59,25
898,-59,24
899,-62,28
900,-64,27
901,-65,26
902,-71,27
903,-68,25
904,-71,27
905,-68,28
906,-66,30
907,-67,30
908,-64,30
909,-57,28
910,-56,28
911,-53,20
912,-46,17
913,-42,7
914,-41,5
915,-33,-2
916,-34,-6
917,-31,-12
918,-30,-11
919,-25,-14
920,-25,-17
921,-25,-20
922,-23,-18
923,-26,-19
924,-30,-17
925,-33,-13
926,-30,-15
927,-33,-14
928,-31,-13
929,-29,-13
930,-28,-10
931,-24,-8
932,-5,-2
933,7,0
934,19,-1
935,15,-1
936,1,-14
937,-21,-25
938,-45,-23
939,-65,-16
940,-73,-11
941,-76,-9
942,-73,-11
943,-71,-16
944,-74,-21
945,-76,-22
946,-71,-18
947,-73,-20
948,-72,-25
949,-73,-24
950,-72,-26
951,-71,-25
952,-73,-24
953,-71,-21
954,-63,-22
955,-39,-21
956,-3,-24
957,19,-46
958,36,-75
959,41,-117
960,81,-206
961,208,-329
962,254,-423
963,69,-346
964,-77,-150
965,-107,-53
966,-109,-5
967,-121,21
968,-123,27
969,-122,30
970,-123,27
971,-124,29
972,-122,29
973,-123,31
974,-124,33
975,-125,39
976,-126,34
977,-127,38
978,-125,39
979,-125,38
980,-123,41
981,-124,45
982,-123,43
983,-124,43
984,-119,43
985,-115,39
986,-112,38
987,-108,30
988,-106,27
989,-103,19
990,-97,9
991,-91,4
992,-84,0
993,-80,-9
994,-74,-10
995,-67,-13
996,-66,-16
997,-60,-15
998,-61,-13
999,-56,-16
1000,-57,-13
1001,-50,-11
1002,-46,-10
1003,-44,-11
1004,-43,-4
1005,-24,-2
1006,-11,1
1007,-1,6
1008,1,1
1009,0,-3
1010,-17,-17
1011,-39,-27
1012,-61,-25
1013,-75,-17
1014,-84,-11
1015,-83,-10
1016,-81,-15
1017,-76,-14
1018,-73,-18
1019,-72,-19
1020,-73,-16
1021,-67,-22
1022,-64,-17
1023,-63,-20
1024,-64,-29
1025,-64,-19
1026,-63,-24
1027,-62,-23
1028,-51,-25
1029,-27,-25
1030,1,-35
1031,18,-60
1032,23,-94
1033,30,-156
1034,90,-253
1035,218,-375
1036,207,-440
1037,16,-307
1038,-87,-130
1039,-101,-54
1040,-103,-11
1041,-107,11
1042,-117,14
1043,-115,16
1044,-110,17
1045,-113,21
1046,-111,22
1047,-112,23
1048,-115,26
1049,-115,28
1050,-117,25
1051,-118,28
1052,-121,29
1053,-122,29
1054,-122,29
1055,-125,30
1056,-123,34
1057,-117,30
1058,-114,28
1059,-110,28
1060,-108,23
1061,-104,18
1062,-100,12
1063,-93,7
1064,-89,1
1065,-81,-4
1066,-70,-6
1067,-65,-14
1068,-62,-15
1069,-60,-18
1070,-54,-16
1071,-52,-21
1072,-53,-21
1073,-51,-19
1074,-50,-18
1075,-43,-17
1076,-43,-14
1077,-40,-9
1078,-26,-4
1079,-9,-3
1080,-1,-4
1081,6,-3
1082,-1,-8
1083,-18,-28
1084,-42,-31
1085,-64,-27
1086,-84,-12
1087,-86,-10
1088,-85,-13
1089,-86,-17
1090,-77,-16
1091,-76,-18
1092,-71,-18
1093,-70,-19
1094,-70,-22
1095,-73,-21
1096,-75,-24
1097,-74,-23
1098,-69,-24
1099,-72,-23
1100,-65,-27
1101,-58,-25
1102,-29,-29
1103,4,-41
1104,30,-58
1105,36,-91
1106,30,-155
1107,95,-263
1108,227,-394
1109,211,-458
1110,16,-304
1111,-75,-120
1112,-89,-50
1113,-91,-2
1114,-98,17
1115,-102,20
1116,-103,21
1117,-104,18
1118,-105,22
1119,-104,22
1120,-106,22
1121,-113,21
1122,-110,21
1123,-106,21
1124,-105,22
1125,-105,26
1126,-109,26
1127,-107,25
1128,-107,28
1129,-101,30
1130,-98,28
1131,-97,28
1132,-91,24
1133,-80,23
1134,-74,22
1135,-74,15
1136,-68,6
1137,-65,2
1138,-61,-4
1139,-50,-10
1140,-50,-12
1141,-45,-19
1142,-39,-21
1143,-37,-21
1144,-33,-25
1145,-34,-25
1146,-28,-23
1147,-34,-18
1148,-30,-24
1149,-30,-19
1150,-27,-17
1151,-23,-16
1152,-20,-15
1153,-7,-11
1154,10,-8
1155,25,-2
1156,37,-3
1157,38,-4
1158,17,-19
1159,-1,-33
1160,-22,-32
1161,-43,-22
1162,-55,-22
1163,-47,-21
1164,-48,-27
1165,-43,-28
1166,-40,-32
1167,-34,-35
1168,-32,-37
1169,-37,-38
1170,-39,-36
1171,-33,-39
1172,-28,-42
1173,-33,-39
1174,-32,-39
1175,-26,-38
1176,-13,-40
1177,12,-41
1178,46,-47
1179,74,-68
1180,94,-95
1181,99,-149
1182,139,-232
1183,249,-354
1184,239,-432
1185,52,-325
1186,-42,-154
1187,-55,-69
1188,-57,-21
1189,-68,-1
1190,-70,1
1191,-70,-1
1192,-70,4
1193,-69,3
1194,-71,5
1195,-76,7
1196,-77,6
1197,-77,9
1198,-79,12
1199,-76,11
1200,-79,16
1201,-81,17
1202,-84,22
1203,-82,22
1204,-80,20
1205,-82,20
1206,-77,19
1207,-75,17
1208,-74,14
1209,-73,7
1210,-70,3
1211,-62,0
1212,-60,-11
1213,-56,-10
1214,-55,-21
1215,-50,-25
1216,-46,-28
1217,-42,-27
1218,-42,-29
1219,-44,-30
1220,-36,-28
1221,-35,-27
1222,-38,-29
1223,-37,-26
1224,-40,-23
1225,-38,-20
1226,-37,-21
1227,-32,-22
1228,-32,-18
1229,-24,-12
1230,-8,-8
1231,0,-6
1232,8,-8
1233,11,-11
1234,0,-21
1235,-19,-40
1236,-40,-36
1237,-62,-31
1238,-74,-24
1239,-78,-15
1240,-71,-20
1241,-73,-23
1242,-69,-25
1243,-68,-24
1244,-65,-23
1245,-66,-29
1246,-66,-26
1247,-66,-29
1248,-65,-31
1249,-67,-32
1250,-67,-31
1251,-67,-32
1252,-61,-30
1253,-43,-34
1254,-5,-39
1255,17,-61
1256,34,-94
1257,39,-144
1258,73,-228
1259,208,-348
1260,252,-442
1261,67,-359
1262,-78,-165
1263,-104,-69
1264,-108,-18
1265,-113,10
1266,-115,18
1267,-112,18
1268,-116,19
1269,-117,19
1270,-117,22
1271,-119,24
1272,-117,26
1273,-118,24
1274,-121,25
1275,-124,28
1276,-126,28
1277,-127,28
1278,-127,31
1279,-125,27
