,0,1
0,14,-30
1,10,-32
2,8,-27
3,11,-25
4,11,-23
5,9,-21
6,8,-21
7,9,-24
8,8,-25
9,5,-30
10,2,-27
11,4,-36
12,4,-32
13,1,-31
14,0,-37
15,-5,-34
16,-6,-35
17,-5,-40
18,-4,-40
19,-7,-40
20,-4,-39
21,-2,-32
22,0,-33
23,0,-37
24,-7,-35
25,-5,-36
26,0,-32
27,-3,-37
28,-3,-39
29,-4,-38
30,-6,-38
31,-3,-39
32,-2,-37
33,-1,-36
34,-1,-33
35,-3,-30
36,-3,-36
37,-6,-40
38,-4,-40
39,-8,-39
40,-8,-43
41,-7,-39
42,-8,-41
43,-10,-45
44,-14,-42
45,-11,-38
46,-9,-39
47,-9,-44
48,-3,-48
49,-9,-44
50,-8,-46
51,-13,-45
52,-13,-42
53,-15,-40
54,-14,-39
55,-14,-32
56,-15,-32
57,-15,-33
58,-11,-24
59,-11,-27
60,-12,-28
61,-9,-30
62,-10,-25
63,-8,-27
64,-10,-28
65,-6,-23
66,-10,-25
67,-8,-22
68,-8,-22
69,-8,-21
70,-10,-22
71,-10,-23
72,-14,-23
73,-15,-22
74,-15,-20
75,-14,-22
76,-15,-25
77,-14,-27
78,-10,-28
79,-6,-23
80,-1,-16
81,4,-10
82,6,-14
83,4,-23
84,2,-19
85,-1,-19
86,-2,-17
87,0,-23
88,-1,-27
89,-5,-28
90,-3,-29
91,-8,-29
92,-10,-33
93,-9,-36
94,-11,-37
95,-11,-27
96,-5,8
97,4,77
98,25,132
99,40,146
100,33,49
101,-8,-43
102,-111,-46
103,-137,-34
104,-104,-29
105,-51,-31
106,-20,-37
107,-11,-32
108,-11,-29
109,-8,-38
110,-3,-32
111,-7,-31
112,-3,-29
113,2,-29
114,0,-25
115,1,-25
116,1,-21
117,4,-21
118,5,-25
119,5,-23
120,8,-23
121,6,-22
122,5,-21
123,8,-21
124,11,-19
125,11,-19
126,12,-21
127,12,-23
128,9,-24
129,9,-25
130,9,-22
131,9,-19
132,11,-19
133,7,-23
134,5,-18
135,3,-23
136,4,-18
137,5,-15
138,6,-14
139,7,-11
140,9,-9
141,6,-14
142,5,-16
143,7,-17
144,5,-15
145,3,-18
146,7,-18
147,5,-19
148,1,-21
149,-1,-26
150,0,-24
151,2,-24
152,1,-19
153,0,-18
154,-2,-20
155,0,-23
156,-3,-25
157,-2,-26
158,-5,-25
159,-3,-27
160,-3,-27
161,-5,-25
162,-9,-27
163,-6,-30
164,-6,-29
165,-6,-30
166,-7,-29
167,-4,-31
168,-5,-32
169,-7,-27
170,-4,-28
171,-6,-29
172,-8,-31
173,-10,-31
174,-8,-29
175,-10,-30
176,-9,-29
177,-11,-28
178,-9,-29
179,-8,-29
180,-11,-31
181,-7,-30
182,-7,-32
183,-10,-31
184,-9,-31
185,-6,-33
186,-9,-33
187,-10,-28
188,-11,-36
189,-9,-37
190,-10,-34
191,-8,-35
192,-6,-31
193,-9,-32
194,-11,-30
195,-11,-34
196,-6,-33
197,-9,-31
198,-10,-32
199,-7,-33
200,-7,-32
201,-9,-28
202,-8,-30
203,-10,-28
204,-8,-28
205,-6,-31
206,-5,-26
207,-1,-24
208,5,-19
209,7,-19
210,10,-19
211,6,-26
212,2,-22
213,0,-25
214,-4,-25
215,0,-33
216,0,-36
217,-2,-33
218,-6,-35
219,-7,-34
220,-11,-36
221,-11,-40
222,-12,-36
223,-10,-17
224,5,39
225,21,111
226,36,148
227,29,82
228,-3,-27
229,-93,-52
230,-132,-35
231,-101,-29
232,-51,-33
233,-20,-31
234,-11,-32
235,-5,-30
236,-4,-28
237,-3,-26
238,0,-28
239,-2,-30
240,-2,-28
241,-1,-26
242,4,-24
243,2,-29
244,4,-27
245,4,-27
246,3,-23
247,6,-24
248,7,-24
249,4,-20
250,10,-22
251,11,-20
252,6,-19
253,9,-21
254,12,-19
255,14,-18
256,11,-21
257,12,-23
258,9,-20
259,10,-19
260,10,-19
261,8,-16
262,13,-17
263,16,-12
264,16,-13
265,16,-10
266,12,-11
267,15,-8
268,10,-11
269,9,-12
270,11,-16
271,9,-20
272,5,-20
273,1,-19
274,3,-24
275,0,-24
276,0,-24
277,0,-24
278,-5,-24
279,-2,-28
280,-1,-26
281,0,-25
282,0,-27
283,-2,-27
284,-2,-26
285,-2,-31
286,0,-29
287,0,-30
288,1,-29
289,1,-27
290,-1,-28
291,0,-28
292,2,-25
293,-1,-26
294,0,-27
295,-1,-27
296,0,-29
297,-6,-34
298,-1,-31
299,-2,-30
300,-2,-26
301,-6,-29
302,-2,-31
303,-9,-33
304,-8,-36
305,-10,-36
306,-13,-35
307,-11,-36
308,-9,-32
309,-10,-30
310,-10,-31
311,-11,-31
312,-8,-38
313,-12,-34
314,-12,-32
315,-9,-35
316,-11,-36
317,-11,-32
318,-10,-34
319,-12,-31
320,-12,-32
321,-9,-30
322,-7,-32
323,-10,-30
324,-9,-34
325,-13,-32
326,-11,-35
327,-13,-35
328,-12,-39
329,-11,-37
330,-15,-29
331,-6,-29
332,-2,-25
333,0,-24
334,3,-25
335,1,-30
336,-4,-28
337,-11,-29
338,-12,-34
339,-9,-32
340,-7,-37
341,-12,-42
342,-16,-42
343,-18,-42
344,-15,-41
345,-16,-43
346,-18,-39
347,-9,-4
348,0,66
349,20,131
350,31,139
351,24,29
352,-36,-50
353,-127,-47
354,-136,-42
355,-93,-38
356,-45,-39
357,-19,-38
358,-16,-39
359,-14,-39
360,-14,-42
361,-10,-40
362,-9,-38
363,-10,-37
364,-10,-40
365,-8,-42
366,-4,-38
367,-1,-36
368,-5,-34
369,-3,-35
370,-2,-32
371,-2,-27
372,0,-31
373,0,-32
374,1,-29
375,2,-24
376,5,-26
377,7,-25
378,8,-23
379,9,-25
380,14,-23
381,11,-19
382,8,-22
383,5,-19
384,8,-21
385,7,-21
386,7,-21
387,8,-15
388,6,-14
389,12,-13
390,9,-16
391,6,-18
392,8,-23
393,4,-19
394,0,-19
395,-3,-20
396,-1,-22
397,-2,-22
398,-2,-25
399,-3,-22
400,-2,-26
401,-3,-26
402,-2,-28
403,-7,-27
404,-8,-24
405,-5,-28
406,-10,-25
407,-6,-22
408,-9,-27
409,-6,-26
410,-7,-24
411,-8,-27
412,-3,-25
413,-5,-26
414,-10,-28
415,-8,-27
416,-8,-29
417,-11,-33
418,-10,-35
419,-10,-30
420,-8,-31
421,-10,-29
422,-11,-30
423,-9,-35
424,-4,-33
425,-10,-33
426,-9,-35
427,-12,-34
428,-12,-33
429,-14,-34
430,-11,-35
431,-11,-33
432,-13,-30
433,-11,-30
434,-11,-29
435,-12,-31
436,-12,-32
437,-9,-29
438,-11,-31
439,-9,-32
440,-12,-34
441,-9,-33
442,-7,-34
443,-11,-32
444,-9,-31
445,0,-35
446,0,-25
447,1,-30
448,7,-47
449,7,-49
450,3,-40
451,-4,-32
452,-2,-41
453,0,-44
454,-6,-38
455,-6,-38
456,-6,-40
457,-14,-40
458,-10,-45
459,-5,-46
460,-1,-28
461,5,16
462,21,88
463,40,143
464,49,123
465,35,2
466,-41,-65
467,-123,-53
468,-118,-48
469,-72,-47
470,-21,-51
471,-5,-53
472,-1,-51
473,-3,-48
474,0,-46
475,0,-49
476,0,-53
477,0,-44
478,1,-40
479,-1,-44
480,1,-40
481,5,-39
482,4,-34
483,6,-34
484,7,-41
485,6,-42
486,6,-35
487,8,-30
488,8,-38
489,13,-28
490,9,-24
491,12,-22
492,9,-16
493,12,-15
494,12,-11
495,10,-2
496,9,0
497,12,1
498,12,2
499,6,-5
500,8,-5
501,5,-8
502,8,-7
503,12,-4
504,11,-4
505,10,-10
506,3,-14
507,-1,-16
508,-2,-19
509,-3,-18
510,-3,-20
511,-5,-22
512,-12,-21
513,-10,-22
514,-11,-29
515,-8,-35
516,-10,-40
517,-11,-40
518,-12,-32
519,-14,-28
520,-16,-25
521,-19,-24
522,-23,-28
523,-21,-34
524,-25,-29
525,-29,-22
526,-31,-33
527,-23,-35
528,-22,-31
529,-20,-30
530,-24,-32
531,-24,-34
532,-25,-43
533,-25,-33
534,-24,-40
535,-23,-41
536,-26,-44
537,-31,-41
538,-30,-43
539,-24,-42
540,-22,-39
541,-19,-40
542,-18,-43
543,-17,-35
544,-22,-41
545,-16,-42
546,-15,-39
547,-14,-35
548,-14,-35
549,-13,-34
550,-12,-29
551,-10,-30
552,-7,-29
553,-5,-26
554,-4,-32
555,-3,-33
556,-4,-26
557,-9,-25
558,-7,-29
559,-9,-33
560,-5,-30
561,-6,-26
562,-5,-24
563,-6,-33
564,-6,-36
565,-8,-31
566,-6,-33
567,-9,-30
568,-11,-34
569,-8,-33
570,-8,-28
571,-7,-29
572,-7,-30
573,1,-25
574,7,-16
575,8,-16
576,13,-17
577,15,-25
578,11,-26
579,1,-26
580,3,-21
581,7,-23
582,5,-29
583,3,-36
584,3,-31
585,2,-32
586,-2,-35
587,1,-38
588,1,-34
589,4,-14
590,14,34
591,27,92
592,44,123
593,32,64
594,-1,-29
595,-91,-52
596,-135,-43
597,-112,-44
598,-60,-48
599,-19,-42
600,-7,-46
601,-9,-46
602,-2,-50
603,0,-52
604,-3,-50
605,-5,-52
606,-2,-52
607,-1,-54
608,0,-48
609,2,-48
610,0,-49
611,0,-48
612,-2,-45
613,0,-48
614,1,-49
615,0,-49
616,0,-48
617,2,-51
618,2,-51
619,4,-48
620,2,-50
621,3,-54
622,2,-51
623,0,-55
624,-2,-55
625,-3,-55
626,-4,-53
627,-6,-51
628,-5,-51
629,-1,-45
630,-2,-39
631,-2,-43
632,-2,-36
633,1,-37
634,0,-37
635,-3,-38
636,-4,-39
637,-2,-35
638,-6,-31
639,-9,-34
640,-10,-35
641,0,-35
642,-2,-42
643,-6,-38
644,-6,-43
645,-3,-44
646,-3,-45
647,-7,-48
648,-6,-50
649,-5,-55
650,-8,-56
651,-6,-59
652,-8,-58
653,-12,-55
654,-13,-53
655,-14,-51
656,-13,-53
657,-14,-53
658,-13,-51
659,-13,-51
660,-16,-51
661,-16,-57
662,-17,-52
663,-16,-52
664,-13,-52
665,-14,-53
666,-19,-48
667,-16,-48
668,-15,-45
669,-17,-43
670,-19,-44
671,-17,-44
672,-15,-43
673,-19,-39
674,-19,-45
675,-19,-47
676,-17,-45
677,-16,-43
678,-11,-40
679,-11,-36
680,-7,-36
681,-9,-32
682,-9,-44
683,-15,-47
684,-18,-42
685,-20,-48
686,-21,-52
687,-24,-54
688,-25,-59
689,-27,-63
690,-28,-61
691,-35,-65
692,-32,-68
693,-33,-54
694,-25,-9
695,-9,58
696,8,107
697,13,82
698,-1,-30
699,-71,-87
700,-165,-77
701,-164,-68
702,-117,-67
703,-62,-69
704,-40,-70
705,-34,-66
706,-32,-66
707,-30,-68
708,-30,-70
709,-30,-64
710,-29,-67
711,-32,-65
712,-31,-62
713,-30,-63
714,-28,-65
715,-29,-66
716,-29,-61
717,-29,-63
718,-27,-61
719,-28,-64
720,-27,-62
721,-25,-57
722,-23,-61
723,-26,-58
724,-22,-59
725,-21,-61
726,-18,-59
727,-20,-59
728,-18,-54
729,-19,-54
730,-18,-54
731,-18,-56
732,-16,-58
733,-18,-54
734,-19,-53
735,-17,-48
736,-17,-48
737,-14,-49
738,-15,-51
739,-15,-53
740,-19,-55
741,-20,-64
742,-28,-59
743,-28,-59
744,-27,-62
745,-29,-60
746,-27,-61
747,-32,-64
748,-22,-64
749,-27,-63
750,-23,-62
751,-27,-61
752,-28,-63
753,-26,-63
754,-23,-60
755,-23,-60
756,-23,-57
757,-22,-56
758,-20,-58
759,-21,-60
760,-22,-59
761,-23,-57
762,-21,-60
763,-20,-59
764,-23,-58
765,-25,-56
766,-22,-58
767,-23,-63
768,-21,-61
769,-24,-62
770,-26,-57
771,-25,-62
772,-25,-63
773,-27,-62
774,-27,-61
775,-27,-61
776,-27,-59
777,-30,-57
778,-29,-62
779,-30,-63
780,-30,-61
781,-30,-61
782,-26,-61
783,-28,-60
784,-27,-58
785,-27,-54
786,-27,-54
787,-28,-54
788,-26,-54
789,-28,-56
790,-26,-56
791,-26,-52
792,-27,-52
793,-30,-51
794,-30,-53
795,-30,-52
796,-30,-52
797,-29,-55
798,-32,-56
799,-29,-56
800,-30,-54
801,-30,-56
802,-31,-58
803,-31,-54
804,-32,-53
805,-31,-54
806,-29,-55
807,-31,-55
808,-29,-56
809,-32,-52
810,-30,-51
811,-28,-46
812,-26,-38
813,-17,-39
814,-16,-42
815,-19,-47
816,-19,-49
817,-28,-49
818,-29,-50
819,-29,-50
820,-29,-54
821,-30,-56
822,-31,-58
823,-34,-61
824,-37,-63
825,-40,-67
826,-38,-62
827,-36,-35
828,-19,33
829,-3,112
830,12,141
831,-1,35
832,-53,-70
833,-152,-75
834,-155,-65
835,-113,-66
836,-64,-66
837,-43,-66
838,-35,-63
839,-38,-64
840,-32,-67
841,-32,-62
842,-33,-63
843,-29,-63
844,-30,-62
845,-28,-62
846,-27,-60
847,-29,-57
848,-28,-60
849,-25,-56
850,-28,-57
851,-25,-56
852,-26,-55
853,-24,-55
854,-21,-59
855,-24,-57
856,-23,-57
857,-21,-57
858,-24,-53
859,-23,-54
860,-21,-52
861,-20,-52
862,-21,-53
863,-22,-51
864,-21,-53
865,-18,-53
866,-19,-49
867,-22,-47
868,-18,-44
869,-18,-41
870,-14,-38
871,-16,-39
872,-16,-46
873,-18,-48
874,-20,-47
875,-20,-52
876,-23,-54
877,-20,-52
878,-26,-51
879,-29,-54
880,-28,-54
881,-21,-53
882,-26,-55
883,-23,-55
884,-23,-58
885,-24,-52
886,-23,-55
887,-25,-57
888,-23,-55
889,-23,-51
890,-23,-53
891,-23,-52
892,-21,-53
893,-18,-53
894,-23,-55
895,-22,-55
896,-21,-53
897,-26,-52
898,-22,-50
899,-22,-54
900,-25,-51
901,-26,-51
902,-29,-53
903,-26,-52
904,-28,-53
905,-27,-55
906,-26,-52
907,-26,-53
908,-28,-54
909,-29,-54
910,-32,-53
911,-28,-53
912,-28,-58
913,-30,-57
914,-27,-58
915,-24,-56
916,-26,-51
917,-28,-53
918,-29,-54
919,-28,-53
920,-30,-55
921,-32,-53
922,-30,-57
923,-29,-57
924,-29,-56
925,-27,-54
926,-28,-56
927,-29,-55
928,-27,-53
929,-25,-54
930,-25,-52
931,-27,-54
932,-27,-52
933,-24,-52
934,-30,-49
935,-23,-50
936,-18,-45
937,-14,-39
938,-15,-37
939,-10,-46
940,-10,-49
941,-17,-50
942,-21,-47
943,-25,-46
944,-23,-51
945,-25,-53
946,-29,-52
947,-27,-58
948,-29,-59
949,-32,-60
950,-34,-63
951,-34,-54
952,-29,-27
953,-13,43
954,6,115
955,12,123
956,0,16
957,-57,-64
958,-147,-66
959,-149,-64
960,-105,-63
961,-56,-62
962,-37,-63
963,-30,-62
964,-28,-63
965,-27,-64
966,-24,-63
967,-24,-67
968,-23,-68
969,-19,-70
970,-21,-64
971,-15,-63
972,-19,-62
973,-14,-63
974,-12,-67
975,-13,-64
976,-14,-69
977,-9,-65
978,-6,-66
979,-8,-69
980,-2,-64
981,-4,-64
982,-4,-63
983,-5,-60
984,-2,-59
985,-2,-63
986,-2,-62
987,0,-57
988,2,-57
989,0,-56
990,0,-55
991,-5,-54
992,-6,-52
993,-3,-48
994,-4,-46
995,-1,-43
996,-2,-46
997,-1,-52
998,-5,-46
999,-7,-50
1000,-7,-50
1001,-10,-54
1002,-13,-54
1003,-18,-50
1004,-16,-48
1005,-15,-47
1006,-12,-51
1007,-10,-50
1008,-13,-54
1009,-13,-53
1010,-14,-48
1011,-13,-43
1012,-11,-41
1013,-16,-45
1014,-12,-41
1015,-11,-39
1016,-14,-38
1017,-11,-38
1018,-14,-40
1019,-13,-36
1020,-13,-37
1021,-13,-36
1022,-18,-35
1023,-14,-36
1024,-15,-37
1025,-11,-41
1026,-14,-44
1027,-17,-42
1028,-18,-46
1029,-20,-48
1030,-17,-49
1031,-13,-46
1032,-18,-50
1033,-20,-49
1034,-18,-50
1035,-16,-50
1036,-16,-47
1037,-15,-50
1038,-15,-49
1039,-15,-49
1040,-15,-48
1041,-13,-47
1042,-15,-46
1043,-12,-49
1044,-12,-50
1045,-13,-47
1046,-13,-47
1047,-18,-49
1048,-16,-48
1049,-21,-45
1050,-17,-45
1051,-17,-48
1052,-17,-44
1053,-16,-45
1054,-16,-47
1055,-18,-53
1056,-18,-52
1057,-16,-53
1058,-18,-54
1059,-17,-50
1060,-19,-54
1061,-17,-48
1062,-14,-44
1063,-14,-38
1064,-5,-40
1065,-3,-44
1066,-6,-50
1067,-4,-48
1068,-14,-44
1069,-14,-50
1070,-8,-49
1071,-14,-51
1072,-12,-51
1073,-14,-55
1074,-18,-53
1075,-24,-55
1076,-25,-52
1077,-23,-50
1078,-21,-34
1079,-11,10
1080,2,75
1081,13,112
1082,4,47
1083,-30,-46
1084,-122,-70
1085,-156,-62
1086,-126,-62
1087,-73,-61
1088,-40,-59
1089,-29,-63
1090,-30,-62
1091,-24,-61
1092,-27,-61
1093,-24,-65
1094,-23,-64
1095,-18,-62
1096,-23,-66
1097,-23,-66
1098,-22,-59
1099,-18,-61
1100,-15,-65
1101,-20,-58
1102,-19,-57
1103,-15,-57
1104,-14,-60
1105,-13,-53
1106,-18,-55
1107,-11,-59
1108,-12,-58
1109,-14,-54
1110,-15,-58
1111,-13,-61
1112,-16,-60
1113,-10,-60
1114,-12,-57
1115,-17,-61
1116,-15,-58
1117,-14,-58
1118,-16,-60
1119,-16,-53
1120,-15,-56
1121,-14,-55
1122,-11,-52
1123,-14,-49
1124,-16,-51
1125,-12,-54
1126,-16,-56
1127,-16,-51
1128,-15,-49
1129,-18,-51
1130,-16,-58
1131,-17,-62
1132,-21,-57
1133,-19,-60
1134,-19,-61
1135,-17,-59
1136,-16,-61
1137,-22,-64
1138,-18,-61
1139,-22,-58
1140,-21,-58
1141,-20,-55
1142,-19,-55
1143,-23,-54
1144,-20,-53
1145,-22,-50
1146,-22,-47
1147,-24,-43
1148,-26,-39
1149,-29,-39
1150,-28,-42
1151,-26,-46
1152,-24,-52
1153,-21,-50
1154,-26,-52
1155,-26,-46
1156,-24,-44
1157,-27,-44
1158,-27,-47
1159,-27,-50
1160,-25,-48
1161,-17,-46
1162,-15,-41
1163,-18,-38
1164,-15,-35
1165,-15,-40
1166,-18,-41
1167,-22,-44
1168,-29,-50
1169,-23,-52
1170,-31,-54
1171,-37,-57
1172,-35,-59
1173,-39,-64
1174,-41,-60
1175,-41,-63
1176,-41,-65
1177,-38,-51
1178,-25,-4
1179,-12,56
1180,5,96
1181,5,58
1182,-25,-41
1183,-114,-77
1184,-175,-65
1185,-157,-62
1186,-100,-58
1187,-56,-60
1188,-46,-61
1189,-40,-56
1190,-39,-59
1191,-36,-58
1192,-35,-58
1193,-36,-56
1194,-34,-60
1195,-28,-60
1196,-29,-65
1197,-20,-68
1198,-20,-67
1199,-18,-67
1200,-15,-65
1201,-18,-60
1202,-20,-63
1203,-19,-60
1204,-17,-61
1205,-17,-58
1206,-22,-62
1207,-16,-60
1208,-15,-64
1209,-14,-62
1210,-15,-63
1211,-10,-66
1212,-16,-63
1213,-15,-67
1214,-13,-61
1215,-16,-65
1216,-19,-60
1217,-22,-61
1218,-11,-55
1219,-16,-54
1220,-15,-58
1221,-13,-56
1222,-14,-58
1223,-14,-57
1224,-14,-61
1225,-17,-62
1226,-19,-65
1227,-21,-65
1228,-21,-71
1229,-26,-67
1230,-24,-67
1231,-26,-71
1232,-26,-69
1233,-26,-71
1234,-30,-69
1235,-28,-69
1236,-31,-70
1237,-27,-67
1238,-27,-70
1239,-30,-74
1240,-28,-72
1241,-27,-70
1242,-24,-68
1243,-27,-69
1244,-29,-69
1245,-30,-68
1246,-30,-72
1247,-30,-70
1248,-30,-67
1249,-28,-72
1250,-29,-69
1251,-29,-66
1252,-32,-69
1253,-32,-69
1254,-32,-66
1255,-33,-64
1256,-35,-70
1257,-34,-68
1258,-39,-73
1259,-37,-69
1260,-36,-69
1261,-39,-70
1262,-37,-67
1263,-37,-66
1264,-38,-64
1265,-39,-65
1266,-37,-66
1267,-36,-63
1268,-36,-63
1269,-34,-65
1270,-33,-63
1271,-31,-63
1272,-32,-60
1273,-34,-58
1274,-34,-59
1275,-35,-62
1276,-32,-61
1277,-32,-59
1278,-31,-61
1279,-32,-59
