,0,1
0,17,-148
1,9,-146
2,8,-152
3,21,-145
4,18,-141
5,1,-144
6,7,-145
7,17,-144
8,28,-139
9,23,-129
10,14,-135
11,20,-128
12,24,-136
13,32,-132
14,30,-132
15,27,-134
16,33,-133
17,28,-131
18,28,-131
19,26,-121
20,21,-100
21,10,-108
22,5,-115
23,4,-121
24,7,-121
25,14,-142
26,21,-145
27,26,-128
28,0,-115
29,-4,-127
30,6,-131
31,11,-114
32,4,-121
33,10,-136
34,6,-127
35,3,-125
36,17,-120
37,12,-125
38,8,-122
39,6,-118
40,5,-117
41,5,-122
42,2,-122
43,8,-133
44,17,-118
45,15,-130
46,3,-141
47,8,-126
48,2,-110
49,0,-122
50,-6,-123
51,1,-136
52,8,-128
53,1,-104
54,4,-109
55,14,-114
56,9,-104
57,22,-91
58,28,-85
59,11,-89
60,8,-95
61,0,-95
62,3,-91
63,-2,-94
64,5,-111
65,14,-111
66,-2,-113
67,-3,-124
68,11,-118
69,1,-129
70,2,-142
71,10,-123
72,-9,-115
73,-18,-146
74,-7,-173
75,4,-82
76,17,95
77,48,322
78,74,458
79,76,242
80,19,25
81,-37,-75
82,-46,-106
83,-18,-121
84,6,-131
85,10,-133
86,-2,-149
87,3,-144
88,0,-155
89,10,-151
90,14,-126
91,-2,-135
92,1,-149
93,9,-145
94,17,-147
95,7,-150
96,4,-152
97,12,-143
98,9,-129
99,11,-138
100,11,-138
101,20,-137
102,13,-134
103,10,-145
104,24,-137
105,26,-142
106,35,-136
107,24,-141
108,24,-138
109,34,-126
110,30,-144
111,23,-149
112,38,-134
113,33,-133
114,30,-132
115,33,-125
116,20,-131
117,18,-117
118,3,-117
119,5,-111
120,10,-117
121,5,-119
122,-2,-130
123,11,-142
124,9,-128
125,-2,-125
126,2,-123
127,2,-122
128,-8,-122
129,0,-127
130,7,-120
131,0,-123
132,0,-127
133,8,-120
134,-5,-123
135,0,-114
136,4,-110
137,0,-122
138,5,-115
139,-4,-107
140,2,-113
141,2,-123
142,0,-124
143,-11,-117
144,-6,-121
145,3,-114
146,0,-119
147,-2,-112
148,6,-127
149,6,-105
150,-14,-113
151,-5,-135
152,0,-116
153,4,-106
154,0,-100
155,1,-106
156,10,-100
157,17,-88
158,19,-72
159,4,-77
160,9,-98
161,7,-90
162,5,-89
163,1,-98
164,-2,-100
165,0,-112
166,0,-122
167,0,-116
168,-4,-133
169,-8,-128
170,-11,-123
171,-2,-127
172,-1,-128
173,-5,-144
174,-2,-169
175,4,-140
176,-4,19
177,23,257
178,49,410
179,55,267
180,23,57
181,-36,-55
182,-49,-91
183,-5,-124
184,-12,-136
185,-11,-139
186,-3,-141
187,1,-157
188,-9,-149
189,-8,-141
190,-3,-133
191,3,-146
192,0,-147
193,1,-155
194,5,-129
195,0,-141
196,-4,-155
197,5,-151
198,9,-146
199,11,-136
200,1,-129
201,0,-135
202,10,-136
203,8,-137
204,11,-130
205,16,-142
206,25,-136
207,28,-126
208,15,-137
209,22,-130
210,21,-124
211,26,-132
212,30,-125
213,27,-128
214,22,-122
215,23,-111
216,12,-98
217,0,-92
218,3,-95
219,5,-97
220,-3,-97
221,0,-93
222,1,-100
223,-3,-108
224,-5,-97
225,-13,-103
226,-14,-109
227,-9,-104
228,-8,-98
229,-4,-110
230,-4,-99
231,-1,-96
232,-2,-88
233,-14,-108
234,-8,-99
235,-2,-90
236,-12,-97
237,-15,-97
238,-4,-98
239,-13,-104
240,-8,-98
241,-9,-101
242,0,-92
243,-16,-96
244,-11,-103
245,-10,-97
246,-17,-97
247,-14,-98
248,-11,-98
249,-17,-104
250,-10,-103
251,-12,-102
252,-12,-98
253,-21,-75
254,-10,-80
255,-8,-66
256,-1,-66
257,-2,-66
258,-4,-70
259,0,-71
260,-6,-75
261,-18,-67
262,-13,-69
263,-9,-78
264,-19,-92
265,-24,-88
266,-19,-95
267,-10,-99
268,-7,-94
269,-24,-93
270,-21,-94
271,-17,-100
272,-25,-122
273,-10,-143
274,-22,-74
275,-15,97
276,17,326
277,49,484
278,45,302
279,24,93
280,-39,-18
281,-59,-58
282,-33,-73
283,-20,-87
284,-14,-99
285,-13,-109
286,-6,-109
287,-16,-109
288,-20,-111
289,-13,-113
290,-3,-110
291,-7,-106
292,-13,-106
293,-8,-107
294,0,-107
295,-11,-100
296,-5,-99
297,-4,-104
298,3,-106
299,0,-107
300,-4,-99
301,1,-97
302,11,-92
303,11,-100
304,11,-101
305,14,-88
306,9,-98
307,6,-100
308,16,-97
309,28,-95
310,15,-104
311,11,-103
312,22,-99
313,19,-87
314,8,-88
315,8,-75
316,1,-77
317,-3,-72
318,6,-66
319,-5,-59
320,2,-57
321,-6,-65
322,-12,-69
323,-16,-69
324,-11,-65
325,-17,-69
326,-11,-70
327,-9,-73
328,-10,-69
329,-3,-69
330,-14,-68
331,-14,-62
332,-12,-59
333,-10,-63
334,-1,-66
335,-5,-61
336,-14,-65
337,-10,-71
338,-3,-69
339,-11,-63
340,-19,-64
341,-23,-69
342,-11,-72
343,-19,-69
344,-16,-62
345,-16,-67
346,-12,-71
347,-27,-66
348,-24,-69
349,-15,-71
350,-15,-71
351,-20,-69
352,-24,-61
353,-34,-58
354,-20,-54
355,-12,-52
356,-7,-47
357,-6,-41
358,-17,-28
359,-16,-38
360,-20,-46
361,-22,-39
362,-18,-45
363,-27,-46
364,-30,-52
365,-23,-65
366,-35,-77
367,-29,-72
368,-28,-69
369,-36,-81
370,-35,-84
371,-28,-78
372,-26,-75
373,-32,-97
374,-33,-129
375,-24,-45
376,-16,138
377,15,363
378,29,472
379,24,270
380,-7,56
381,-73,-45
382,-81,-66
383,-48,-78
384,-30,-88
385,-27,-90
386,-38,-96
387,-32,-100
388,-20,-100
389,-27,-98
390,-37,-98
391,-31,-105
392,-24,-110
393,-19,-103
394,-20,-98
395,-26,-102
396,-22,-108
397,-15,-102
398,-16,-95
399,-12,-98
400,-11,-102
401,-9,-103
402,-4,-94
403,-14,-97
404,-9,-99
405,-2,-97
406,0,-104
407,0,-98
408,-3,-97
409,-1,-94
410,5,-87
411,-1,-91
412,0,-98
413,5,-99
414,7,-94
415,1,-83
416,-7,-83
417,-9,-72
418,-7,-62
419,-15,-66
420,-14,-64
421,-7,-57
422,-6,-62
423,-18,-64
424,-18,-63
425,-18,-64
426,-19,-70
427,-22,-63
428,-13,-62
429,-22,-68
430,-19,-63
431,-16,-66
432,-12,-69
433,-14,-72
434,-15,-60
435,-12,-53
436,-18,-60
437,-10,-61
438,-17,-56
439,-24,-60
440,-14,-65
441,-20,-60
442,-20,-59
443,-19,-57
444,-18,-58
445,-16,-68
446,-16,-68
447,-18,-60
448,-21,-65
449,-28,-62
450,-27,-56
451,-26,-59
452,-22,-67
453,-24,-63
454,-20,-56
455,-13,-54
456,-22,-51
457,-17,-36
458,-11,-40
459,-5,-46
460,-10,-24
461,-4,-12
462,-24,-33
463,-29,-42
464,-26,-45
465,-25,-37
466,-30,-41
467,-25,-49
468,-27,-62
469,-30,-65
470,-22,-65
471,-21,-65
472,-32,-63
473,-31,-62
474,-27,-66
475,-32,-70
476,-28,-90
477,-25,-102
478,-27,-7
479,-11,169
480,18,385
481,31,485
482,37,288
483,4,106
484,-52,12
485,-68,-19
486,-49,-43
487,-34,-59
488,-32,-72
489,-31,-72
490,-30,-79
491,-25,-72
492,-31,-73
493,-26,-72
494,-24,-70
495,-26,-68
496,-31,-70
497,-31,-65
498,-25,-69
499,-22,-72
500,-25,-74
501,-24,-68
502,-22,-72
503,-22,-70
504,-20,-75
505,-13,-71
506,-15,-68
507,-12,-70
508,-8,-68
509,-7,-71
510,-4,-74
511,-6,-74
512,1,-71
513,1,-73
514,2,-72
515,0,-78
516,4,-77
517,-1,-74
518,-3,-65
519,-3,-57
520,-10,-55
521,-12,-52
522,-14,-47
523,-15,-46
524,-22,-51
525,-22,-54
526,-22,-53
527,-23,-54
528,-21,-52
529,-26,-51
530,-20,-51
531,-28,-54
532,-28,-51
533,-23,-52
534,-21,-49
535,-19,-54
536,-19,-46
537,-24,-47
538,-23,-47
539,-26,-43
540,-21,-44
541,-24,-43
542,-22,-41
543,-22,-40
544,-25,-42
545,-25,-43
546,-23,-40
547,-24,-44
548,-25,-46
549,-22,-44
550,-27,-46
551,-24,-44
552,-23,-39
553,-26,-38
554,-23,-44
555,-26,-42
556,-26,-42
557,-27,-42
558,-27,-37
559,-26,-33
560,-23,-27
561,-15,-20
562,-10,-15
563,-11,-11
564,-18,-17
565,-26,-24
566,-31,-19
567,-29,-19
568,-33,-18
569,-35,-33
570,-36,-39
571,-35,-41
572,-36,-46
573,-42,-47
574,-37,-51
575,-36,-47
576,-39,-46
577,-37,-44
578,-41,-59
579,-39,-98
580,-37,-43
581,-27,137
582,-2,372
583,19,540
584,20,368
585,-2,119
586,-71,6
587,-93,-18
588,-66,-36
589,-46,-48
590,-41,-58
591,-43,-66
592,-42,-68
593,-42,-71
594,-41,-69
595,-40,-73
596,-38,-73
597,-36,-72
598,-34,-76
599,-32,-72
600,-32,-74
601,-29,-71
602,-29,-70
603,-27,-70
604,-28,-67
605,-29,-64
606,-25,-63
607,-24,-64
608,-21,-64
609,-18,-60
610,-16,-62
611,-11,-63
612,-12,-59
613,-6,-64
614,-6,-66
615,-6,-61
616,-6,-65
617,-4,-63
618,-8,-63
619,-7,-63
620,-10,-56
621,-11,-51
622,-15,-46
623,-23,-45
624,-26,-38
625,-29,-41
626,-30,-40
627,-30,-43
628,-32,-45
629,-32,-45
630,-35,-50
631,-36,-49
632,-33,-50
633,-31,-46
634,-29,-46
635,-33,-45
636,-33,-41
637,-30,-40
638,-29,-38
639,-29,-36
640,-27,-34
641,-30,-39
642,-32,-38
643,-30,-37
644,-33,-38
645,-29,-39
646,-33,-36
647,-33,-37
648,-33,-43
649,-32,-45
650,-36,-45
651,-33,-42
652,-34,-46
653,-34,-47
654,-36,-40
655,-32,-42
656,-35,-45
657,-37,-44
658,-41,-43
659,-34,-43
660,-34,-46
661,-36,-40
662,-28,-30
663,-26,-26
664,-17,-16
665,-22,-8
666,-21,-8
667,-29,-22
668,-37,-18
669,-40,-24
670,-44,-25
671,-43,-25
672,-39,-39
673,-40,-53
674,-39,-52
675,-40,-52
676,-43,-54
677,-43,-56
678,-44,-53
679,-44,-49
680,-42,-67
681,-42,-103
682,-41,-57
683,-24,119
684,2,343
685,22,501
686,31,315
687,11,101
688,-52,-2
689,-78,-31
690,-50,-49
691,-41,-68
692,-30,-75
693,-33,-80
694,-34,-82
695,-32,-82
696,-31,-86
697,-34,-88
698,-27,-82
699,-32,-83
700,-29,-78
701,-30,-79
702,-27,-83
703,-25,-85
704,-24,-81
705,-25,-80
706,-23,-80
707,-20,-81
708,-23,-81
709,-17,-78
710,-16,-78
711,-15,-80
712,-11,-72
713,-8,-75
714,-8,-74
715,-7,-74
716,-3,-77
717,-1,-77
718,-2,-74
719,-1,-77
720,-5,-77
721,-6,-72
722,-7,-69
723,-12,-62
724,-11,-52
725,-17,-46
726,-16,-46
727,-17,-45
728,-20,-46
729,-24,-49
730,-24,-53
731,-28,-50
732,-29,-50
733,-31,-50
734,-29,-52
735,-27,-48
736,-28,-47
737,-26,-45
738,-29,-47
739,-27,-37
740,-25,-36
741,-28,-32
742,-26,-33
743,-27,-38
744,-28,-36
745,-28,-37
746,-30,-35
747,-31,-42
748,-32,-44
749,-31,-39
750,-29,-44
751,-35,-44
752,-33,-46
753,-36,-40
754,-32,-41
755,-32,-41
756,-35,-39
757,-34,-38
758,-37,-39
759,-35,-38
760,-38,-29
761,-34,-30
762,-24,-29
763,-25,-24
764,-18,-17
765,-18,-9
766,-24,-15
767,-28,-16
768,-37,-20
769,-36,-25
770,-44,-24
771,-40,-28
772,-38,-38
773,-39,-46
774,-40,-46
775,-42,-44
776,-40,-42
777,-43,-47
778,-38,-46
779,-40,-50
780,-38,-59
781,-34,-95
782,-36,-69
783,-29,75
784,0,308
785,26,533
786,36,459
787,21,185
788,-40,28
789,-86,-13
790,-66,-31
791,-41,-48
792,-32,-57
793,-32,-67
794,-30,-63
795,-29,-64
796,-28,-66
797,-24,-64
798,-24,-64
799,-21,-66
800,-24,-71
801,-19,-69
802,-18,-66
803,-16,-64
804,-16,-61
805,-14,-60
806,-9,-62
807,-10,-61
808,-9,-60
809,-7,-58
810,-7,-53
811,0,-57
812,-4,-52
813,0,-52
814,0,-54
815,5,-53
816,8,-48
817,11,-50
818,9,-55
819,10,-55
820,10,-56
821,10,-57
822,10,-51
823,9,-43
824,6,-37
825,3,-31
826,-1,-32
827,1,-35
828,-4,-32
829,2,-31
830,-6,-24
831,-22,-27
832,-12,-28
833,-24,-33
834,-26,-36
835,-22,-33
836,-17,-39
837,-16,-36
838,-13,-37
839,-15,-26
840,-16,-25
841,-13,-26
842,-12,-30
843,-13,-30
844,-14,-27
845,-12,-24
846,-11,-25
847,-10,-26
848,-8,-29
849,-12,-29
850,-15,-24
851,-18,-24
852,-18,-21
853,-15,-27
854,-16,-31
855,-21,-26
856,-18,-25
857,-17,-25
858,-18,-28
859,-17,-31
860,-21,-31
861,-24,-28
862,-23,-32
863,-23,-26
864,-25,-15
865,-19,-15
866,-11,-12
867,-11,-7
868,-10,-3
869,-9,0
870,-16,-10
871,-22,-14
872,-24,-16
873,-25,-17
874,-26,-19
875,-31,-23
876,-27,-43
877,-27,-53
878,-32,-54
879,-29,-51
880,-32,-57
881,-33,-54
882,-31,-57
883,-28,-61
884,-30,-86
885,-27,-111
886,-29,-36
887,-17,145
888,17,382
889,31,541
890,33,371
891,6,115
892,-60,-1
893,-82,-29
894,-47,-44
895,-28,-62
896,-26,-69
897,-25,-72
898,-27,-74
899,-25,-79
900,-25,-82
901,-23,-78
902,-23,-81
903,-19,-79
904,-21,-79
905,-18,-82
906,-21,-84
907,-16,-75
908,-13,-75
909,-15,-79
910,-11,-75
911,-8,-76
912,-8,-76
913,-6,-71
914,-5,-72
915,-5,-72
916,0,-70
917,0,-69
918,5,-69
919,7,-70
920,6,-71
921,9,-71
922,8,-72
923,10,-73
924,6,-76
925,8,-72
926,3,-65
927,3,-62
928,0,-53
929,-6,-51
930,-8,-42
931,-14,-39
932,-17,-38
933,-16,-37
934,-16,-39
935,-16,-42
936,-18,-48
937,-22,-46
938,-14,-44
939,-21,-45
940,-17,-43
941,-17,-44
942,-18,-43
943,-20,-44
944,-17,-42
945,-15,-36
946,-16,-37
947,-15,-35
948,-18,-31
949,-15,-32
950,-14,-32
951,-17,-34
952,-17,-39
953,-18,-40
954,-21,-31
955,-21,-37
956,-24,-35
957,-24,-37
958,-26,-33
959,-28,-33
960,-27,-33
961,-26,-36
962,-26,-33
963,-25,-32
964,-28,-29
965,-25,-32
966,-25,-28
967,-29,-23
968,-23,-20
969,-15,-16
970,-10,-8
971,-9,-5
972,-13,-6
973,-16,-10
974,-23,-13
975,-26,-14
976,-27,-14
977,-28,-15
978,-27,-27
979,-22,-43
980,-22,-50
981,-32,-44
982,-28,-46
983,-30,-44
984,-30,-49
985,-29,-46
986,-30,-54
987,-28,-88
988,-27,-86
989,-25,43
990,1,262
991,26,488
992,35,511
993,26,245
994,-23,47
995,-83,-20
996,-73,-38
997,-43,-55
998,-29,-68
999,-30,-63
1000,-27,-69
1001,-26,-71
1002,-26,-77
1003,-24,-83
1004,-24,-74
1005,-27,-75
1006,-22,-77
1007,-24,-79
1008,-21,-80
1009,-19,-80
1010,-22,-76
1011,-15,-75
1012,-16,-75
1013,-13,-72
1014,-16,-72
1015,-15,-73
1016,-11,-68
1017,-8,-64
1018,-6,-63
1019,-1,-66
1020,0,-65
1021,0,-70
1022,5,-64
1023,7,-66
1024,11,-64
1025,8,-68
1026,5,-68
1027,4,-66
1028,3,-63
1029,-1,-58
1030,-3,-51
1031,-4,-42
1032,-9,-34
1033,-15,-31
1034,-17,-31
1035,-22,-32
1036,-22,-32
1037,-22,-33
1038,-27,-35
1039,-27,-36
1040,-25,-36
1041,-22,-37
1042,-24,-43
1043,-22,-49
1044,-22,-48
1045,-21,-42
1046,-23,-43
1047,-21,-45
1048,-19,-45
1049,-23,-45
1050,-20,-44
1051,-21,-42
1052,-24,-43
1053,-27,-49
1054,-24,-46
1055,-26,-50
1056,-28,-50
1057,-27,-53
1058,-27,-52
1059,-28,-52
1060,-29,-54
1061,-26,-53
1062,-28,-55
1063,-29,-54
1064,-31,-55
1065,-28,-54
1066,-29,-48
1067,-29,-48
1068,-30,-55
1069,-28,-54
1070,-24,-51
1071,-18,-48
1072,-21,-36
1073,-15,-39
1074,-12,-32
1075,-11,-28
1076,-8,-21
1077,-12,-21
1078,-19,-28
1079,-22,-32
1080,-28,-35
1081,-24,-37
1082,-26,-46
1083,-25,-63
1084,-23,-69
1085,-24,-70
1086,-24,-64
1087,-27,-69
1088,-29,-64
1089,-30,-57
1090,-24,-60
1091,-25,-72
1092,-26,-102
1093,-22,-40
1094,-13,116
1095,16,319
1096,30,465
1097,29,323
1098,14,110
1099,-49,4
1100,-75,-25
1101,-47,-47
1102,-28,-60
1103,-25,-68
1104,-23,-74
1105,-22,-76
1106,-26,-78
1107,-24,-82
1108,-24,-75
1109,-23,-75
1110,-18,-74
1111,-19,-78
1112,-21,-77
1113,-18,-73
1114,-20,-76
1115,-22,-73
1116,-19,-71
1117,-21,-68
1118,-16,-67
1119,-16,-67
1120,-16,-67
1121,-14,-64
1122,-13,-68
1123,-9,-62
1124,-6,-62
1125,-6,-68
1126,-2,-72
1127,-5,-74
1128,-2,-73
1129,-5,-77
1130,-8,-71
1131,-9,-76
1132,-9,-73
1133,-9,-58
1134,-11,-56
1135,-15,-46
1136,-18,-44
1137,-20,-42
1138,-25,-38
1139,-31,-36
1140,-33,-41
1141,-32,-40
1142,-32,-44
1143,-36,-43
1144,-36,-42
1145,-39,-47
1146,-39,-43
1147,-36,-43
1148,-36,-41
1149,-34,-34
1150,-36,-36
1151,-36,-42
1152,-36,-40
1153,-34,-37
1154,-37,-40
1155,-36,-40
1156,-34,-42
1157,-40,-40
1158,-40,-37
1159,-42,-36
1160,-43,-37
1161,-44,-38
1162,-42,-38
1163,-42,-42
1164,-49,-36
1165,-48,-35
1166,-49,-37
1167,-50,-37
1168,-48,-34
1169,-51,-36
1170,-52,-38
1171,-50,-43
1172,-50,-44
1173,-48,-41
1174,-46,-34
1175,-41,-28
1176,-33,-26
1177,-31,-20
1178,-28,-10
1179,-32,-15
1180,-40,-22
1181,-44,-22
1182,-48,-19
1183,-48,-21
1184,-49,-24
1185,-46,-39
1186,-45,-47
1187,-51,-49
1188,-50,-49
1189,-50,-48
1190,-54,-43
1191,-55,-44
1192,-53,-46
1193,-53,-65
1194,-49,-88
1195,-49,2
1196,-29,211
1197,4,451
1198,16,513
1199,14,256
1200,-35,63
1201,-95,-5
1202,-93,-29
1203,-60,-38
1204,-50,-49
1205,-49,-60
1206,-54,-64
1207,-50,-64
1208,-48,-61
1209,-48,-58
1210,-46,-62
1211,-47,-60
1212,-45,-63
1213,-44,-67
1214,-40,-67
1215,-40,-64
1216,-42,-64
1217,-40,-62
1218,-41,-63
1219,-37,-64
1220,-39,-65
1221,-32,-60
1222,-34,-62
1223,-30,-61
1224,-25,-61
1225,-23,-60
1226,-23,-60
1227,-19,-60
1228,-18,-60
1229,-19,-66
1230,-18,-66
1231,-19,-67
1232,-22,-68
1233,-26,-64
1234,-26,-52
1235,-30,-46
1236,-29,-40
1237,-38,-33
1238,-41,-28
1239,-40,-30
1240,-42,-33
1241,-43,-33
1242,-49,-33
1243,-51,-32
1244,-49,-30
1245,-50,-28
1246,-47,-36
1247,-51,-38
1248,-47,-39
1249,-46,-35
1250,-49,-36
1251,-50,-37
1252,-52,-40
1253,-52,-39
1254,-50,-36
1255,-53,-42
1256,-52,-45
1257,-56,-49
1258,-57,-45
1259,-57,-44
1260,-53,-48
1261,-61,-52
1262,-59,-55
1263,-60,-46
1264,-53,-46
1265,-54,-45
1266,-62,-48
1267,-61,-49
1268,-56,-55
1269,-62,-50
1270,-60,-49
1271,-61,-50
1272,-58,-52
1273,-57,-46
1274,-57,-46
1275,-54,-39
1276,-53,-36
1277,-45,-32
1278,-36,-23
1279,-39,-20
