,0,1
0,-33,-6
1,-32,-5
2,-40,-4
3,-32,-1
4,-33,-7
5,-27,-8
6,-32,0
7,-35,29
8,-14,19
9,135,-41
10,329,-145
11,236,-249
12,-61,-169
13,-118,-84
14,-76,-46
15,-51,-24
16,-46,-1
17,-39,6
18,-43,4
19,-40,9
20,-42,14
21,-32,5
22,-37,3
23,-38,3
24,-38,11
25,-33,5
26,-35,8
27,-29,8
28,-32,13
29,-28,12
30,-23,9
31,-17,9
32,-14,8
33,-15,8
34,-15,13
35,-5,3
36,5,1
37,13,-2
38,17,-7
39,25,-9
40,15,-13
41,22,-12
42,35,-19
43,38,-20
44,45,-20
45,50,-18
46,52,-12
47,52,-14
48,44,-13
49,32,-6
50,23,0
51,14,-3
52,11,-5
53,6,-4
54,0,0
55,-2,6
56,-2,1
57,-2,-1
58,0,1
59,9,0
60,7,5
61,4,6
62,5,-4
63,14,-2
64,14,-7
65,17,-13
66,12,-5
67,11,-4
68,11,-7
69,9,-9
70,8,-7
71,3,-7
72,0,-4
73,-1,-4
74,3,-10
75,2,-8
76,-1,-4
77,-6,-4
78,-5,-1
79,-6,0
80,-3,-1
81,-6,-5
82,-1,-5
83,-5,-8
84,-4,-1
85,-7,0
86,-8,-3
87,-4,-10
88,-1,-5
89,-9,-7
90,-2,-3
91,-9,0
92,-3,-6
93,-5,-11
94,0,-8
95,3,-6
96,13,0
97,28,-1
98,58,-5
99,54,-19
100,37,-16
101,20,-9
102,12,1
103,-12,-3
104,-10,-5
105,-16,0
106,-9,-5
107,-15,-5
108,-6,-4
109,-7,-9
110,-10,12
111,-20,37
112,39,-11
113,221,-74
114,350,-219
115,118,-250
116,-102,-137
117,-80,-67
118,-37,-34
119,-33,-12
120,-22,1
121,-27,5
122,-25,15
123,-23,6
124,-14,1
125,-23,8
126,-21,14
127,-21,14
128,-13,20
129,-18,22
130,-15,7
131,-15,3
132,-2,12
133,-4,9
134,-4,7
135,-14,9
136,0,10
137,2,7
138,15,3
139,15,0
140,25,2
141,27,0
142,39,-2
143,32,-7
144,45,-12
145,51,-24
146,57,-24
147,57,-23
148,68,-21
149,69,-23
150,73,-18
151,62,-17
152,55,-11
153,39,-7
154,31,-5
155,13,-8
156,12,-4
157,5,0
158,10,0
159,3,3
160,6,7
161,2,3
162,6,8
163,8,4
164,13,2
165,14,-1
166,19,-4
167,11,-6
168,14,-1
169,14,-12
170,20,-11
171,9,-12
172,13,-10
173,1,-11
174,4,-5
175,1,-10
176,0,-2
177,-10,0
178,-8,-3
179,-14,-2
180,-7,-7
181,-12,-8
182,-10,-13
183,-16,-13
184,-13,-10
185,-22,-8
186,-17,-9
187,-21,-9
188,-14,-13
189,-22,-12
190,-20,-11
191,-27,-10
192,-19,-10
193,-28,-7
194,-18,-6
195,-31,-10
196,-26,-11
197,-22,-20
198,-18,-13
199,-12,-11
200,1,-12
201,20,-21
202,32,-28
203,13,-28
204,-2,-19
205,-11,-20
206,-32,-12
207,-46,-15
208,-40,-22
209,-45,-23
210,-46,-17
211,-41,-20
212,-42,-14
213,-47,-3
214,-50,20
215,-22,0
216,133,-58
217,300,-165
218,138,-261
219,-121,-156
220,-131,-77
221,-91,-60
222,-68,-38
223,-65,-24
224,-60,-19
225,-69,-14
226,-65,-8
227,-72,0
228,-67,-3
229,-69,-10
230,-62,-10
231,-68,-1
232,-63,1
233,-63,-3
234,-58,-11
235,-63,-5
236,-58,0
237,-59,-6
238,-50,-5
239,-52,1
240,-42,-2
241,-43,-8
242,-33,-17
243,-27,-16
244,-20,-13
245,-23,-8
246,-13,-18
247,-5,-33
248,-7,-21
249,-6,-30
250,0,-27
251,-2,-37
252,4,-30
253,7,-22
254,18,-22
255,11,-27
256,0,-9
257,-15,8
258,-23,11
259,-25,-1
260,-34,-2
261,-32,-17
262,-32,-6
263,-34,-7
264,-38,12
265,-38,12
266,-32,12
267,-23,-20
268,-18,-10
269,-18,-2
270,-19,5
271,-15,14
272,-11,-2
273,-5,-21
274,-4,-21
275,-17,-2
276,-20,3
277,-18,9
278,-23,9
279,-19,-3
280,-15,-8
281,-18,0
282,-16,-7
283,-23,1
284,-24,10
285,-22,1
286,-18,1
287,-18,-4
288,-16,-5
289,-17,10
290,-20,10
291,-18,9
292,-21,4
293,-17,8
294,-17,13
295,-17,11
296,-26,25
297,-16,-2
298,-13,-2
299,-15,0
300,-26,10
301,-17,12
302,-9,9
303,0,15
304,18,12
305,38,5
306,33,0
307,13,8
308,-2,10
309,-3,3
310,-25,-3
311,-29,1
312,-33,2
313,-32,4
314,-33,13
315,-30,7
316,-33,0
317,-32,24
318,-36,53
319,20,1
320,203,-54
321,329,-208
322,75,-282
323,-137,-161
324,-109,-73
325,-65,-39
326,-58,-13
327,-50,3
328,-53,9
329,-50,19
330,-50,17
331,-48,16
332,-54,15
333,-51,17
334,-48,20
335,-49,18
336,-52,19
337,-48,23
338,-45,19
339,-45,22
340,-47,17
341,-42,18
342,-41,22
343,-36,20
344,-34,11
345,-20,11
346,-17,15
347,-12,9
348,-11,6
349,-3,-1
350,-2,-8
351,-2,-7
352,0,-11
353,8,-9
354,4,-12
355,5,-14
356,19,-19
357,21,-13
358,20,-8
359,5,-5
360,-4,-2
361,-9,0
362,-27,8
363,-30,7
364,-51,9
365,-38,15
366,-55,9
367,-49,13
368,-67,15
369,-59,9
370,-57,17
371,-45,15
372,-53,19
373,-46,14
374,-54,12
375,-53,12
376,-54,5
377,-52,7
378,-63,7
379,-57,2
380,-60,7
381,-62,2
382,-67,5
383,-68,5
384,-76,9
385,-70,4
386,-79,5
387,-81,0
388,-81,2
389,-77,4
390,-84,5
391,-73,3
392,-85,2
393,-82,4
394,-84,4
395,-84,3
396,-88,3
397,-85,2
398,-88,4
399,-84,8
400,-92,5
401,-97,1
402,-95,2
403,-91,4
404,-104,1
405,-86,0
406,-89,5
407,-61,4
408,-50,3
409,-40,-6
410,-66,-13
411,-74,-2
412,-79,-3
413,-94,0
414,-112,-2
415,-109,-1
416,-113,-4
417,-105,-5
418,-113,-2
419,-109,0
420,-115,10
421,-114,41
422,-67,4
423,112,-52
424,222,-194
425,-50,-268
426,-228,-130
427,-175,-58
428,-138,-33
429,-132,-16
430,-139,-2
431,-138,-1
432,-136,3
433,-133,4
434,-140,3
435,-140,3
436,-138,4
437,-137,7
438,-143,5
439,-138,3
440,-137,4
441,-134,4
442,-130,2
443,-135,7
444,-134,2
445,-131,4
446,-129,0
447,-122,0
448,-121,-4
449,-119,-11
450,-114,-5
451,-104,-12
452,-107,-17
453,-100,-18
454,-98,-21
455,-96,-27
456,-100,-23
457,-94,-27
458,-86,-25
459,-74,-27
460,-74,-29
461,-67,-21
462,-79,-21
463,-96,-16
464,-98,-13
465,-104,-14
466,-112,-8
467,-112,-8
468,-99,-7
469,-109,-2
470,-138,3
471,-128,4
472,-94,-8
473,-90,-5
474,-91,-7
475,-108,-5
476,-61,-8
477,-28,-21
478,-75,-21
479,-125,-11
480,-133,0
481,-114,-3
482,-105,-5
483,-135,-1
484,-115,0
485,-132,4
486,-124,-1
487,-125,0
488,-125,0
489,-116,-3
490,-136,1
491,-131,2
492,-133,5
493,-127,1
494,-110,-3
495,-127,5
496,-118,8
497,-106,1
498,-112,0
499,-143,8
500,-122,6
501,-120,4
502,-121,2
503,-100,-2
504,-125,8
505,-156,10
506,-149,13
507,-148,9
508,-145,10
509,-109,4
510,-105,12
511,-79,11
512,-81,0
513,-101,0
514,-101,3
515,-108,7
516,-116,5
517,-136,6
518,-115,0
519,-98,-7
520,-142,4
521,-150,10
522,-144,9
523,-151,22
524,-148,46
525,-46,0
526,173,-52
527,183,-176
528,-119,-216
529,-211,-115
530,-154,-45
531,-197,-12
532,-175,12
533,-163,0
534,-147,9
535,-151,6
536,-135,5
537,-162,13
538,-138,12
539,-121,6
540,-143,12
541,-154,15
542,-151,18
543,-153,20
544,-157,17
545,-158,28
546,-123,34
547,-116,13
548,-148,41
549,-131,32
550,-120,6
551,-129,2
552,-112,0
553,-101,1
554,-128,8
555,-112,9
556,-74,2
557,-88,-4
558,-117,5
559,-100,2
560,-88,1
561,-65,-1
562,-37,-5
563,-72,2
564,-69,12
565,-75,11
566,-71,11
567,-94,14
568,-126,37
569,-114,26
570,-114,19
571,-111,26
572,-98,28
573,-103,26
574,-98,22
575,-96,22
576,-86,28
577,-86,25
578,-81,18
579,-55,19
580,-89,23
581,-82,20
582,-74,11
583,-78,16
584,-91,21
585,-75,19
586,-83,22
587,-104,21
588,-86,21
589,-81,28
590,-75,25
591,-114,14
592,-110,22
593,-93,23
594,-95,13
595,-88,21
596,-82,17
597,-76,18
598,-95,17
599,-91,31
600,-98,21
601,-79,20
602,-61,11
603,-79,22
604,-120,32
605,-92,31
606,-88,24
607,-90,16
608,-69,17
609,-80,21
610,-89,11
611,-84,19
612,-76,21
613,-40,24
614,-30,16
615,-28,5
616,-49,13
617,-50,21
618,-51,24
619,-92,27
620,-110,26
621,-90,22
622,-87,22
623,-92,23
624,-102,29
625,-91,29
626,-86,47
627,-66,60
628,66,3
629,246,-49
630,154,-185
631,-116,-208
632,-206,-106
633,-136,-26
634,-107,2
635,-101,21
636,-121,27
637,-111,33
638,-113,33
639,-102,36
640,-85,40
641,-104,41
642,-112,33
643,-111,33
644,-113,37
645,-93,49
646,-128,37
647,-139,40
648,-133,40
649,-96,39
650,-93,38
651,-116,36
652,-107,32
653,-109,44
654,-113,37
655,-84,30
656,-105,32
657,-87,47
658,-88,40
659,-71,10
660,-55,0
661,-66,-7
662,-84,-2
663,-59,-1
664,-69,5
665,-64,13
666,-61,5
667,-58,13
668,-57,20
669,-67,23
670,-81,24
671,-77,29
672,-83,47
673,-90,32
674,-87,41
675,-67,27
676,-37,12
677,-101,33
678,-61,23
679,-98,42
680,-74,36
681,-90,33
682,-62,17
683,-110,33
684,-141,44
685,-106,42
686,-101,24
687,-91,33
688,-89,30
689,-91,36
690,-95,26
691,-91,38
692,-96,30
693,-89,21
694,-93,25
695,-101,39
696,-97,21
697,-92,26
698,-99,35
699,-94,37
700,-90,34
701,-91,14
702,-61,17
703,-81,33
704,-86,15
705,-74,40
706,-65,5
707,-97,-4
708,-81,0
709,-135,10
710,-109,3
711,-128,19
712,-120,31
713,-93,25
714,-106,31
715,-89,41
716,-76,35
717,-52,21
718,-69,51
719,-80,55
720,-79,-2
721,-98,0
722,-115,6
723,-104,10
724,-81,10
725,-127,19
726,-115,11
727,-100,15
728,-100,20
729,-115,37
730,-93,47
731,75,-11
732,194,-80
733,37,-202
734,-179,-124
735,-176,-41
736,-125,-10
737,-120,10
738,-126,22
739,-119,27
740,-112,31
741,-111,29
742,-110,32
743,-102,35
744,-107,35
745,-116,37
746,-108,33
747,-96,33
748,-91,37
749,-105,34
750,-54,28
751,-69,32
752,-128,41
753,-73,35
754,-73,34
755,-69,45
756,-67,41
757,-85,30
758,-90,32
759,-42,26
760,-40,20
761,-45,13
762,-88,26
763,-49,16
764,-58,18
765,22,5
766,-72,17
767,5,8
768,57,-1
769,-106,25
770,-32,30
771,-41,29
772,-60,33
773,-66,31
774,-29,27
775,-33,30
776,-57,32
777,-57,35
778,-35,35
779,-17,28
780,-22,32
781,-39,36
782,-44,42
783,27,31
784,71,8
785,-73,35
786,-27,37
787,-44,41
788,4,26
789,-48,10
790,-32,18
791,19,21
792,-26,34
793,-36,23
794,-15,14
795,-39,20
796,-24,25
797,-13,25
798,-46,29
799,3,19
800,-28,22
801,-15,17
802,-45,24
803,-42,25
804,-32,47
805,-25,19
806,-35,19
807,-10,21
808,-31,17
809,-31,19
810,-30,22
811,-35,19
812,-16,22
813,-13,20
814,-4,19
815,-16,19
816,-5,21
817,-5,22
818,9,26
819,39,19
820,50,11
821,36,7
822,44,10
823,24,17
824,-9,20
825,-6,21
826,12,18
827,1,16
828,-22,24
829,-18,25
830,0,30
831,0,16
832,1,52
833,9,49
834,137,0
835,343,-88
836,243,-235
837,-39,-184
838,-78,-99
839,-27,-40
840,-5,-4
841,-2,9
842,-6,17
843,0,23
844,-3,23
845,-4,23
846,4,30
847,4,30
848,-2,30
849,-1,25
850,2,26
851,-5,38
852,-8,36
853,5,10
854,10,17
855,2,20
856,5,23
857,4,32
858,13,12
859,15,29
860,28,13
861,23,6
862,24,9
863,35,3
864,34,-4
865,45,-1
866,37,-1
867,25,0
868,39,7
869,49,42
870,50,-6
871,51,-37
872,57,-32
873,59,-3
874,60,0
875,50,2
876,45,6
877,24,12
878,28,12
879,22,14
880,27,14
881,21,20
882,30,19
883,28,21
884,30,25
885,31,26
886,34,3
887,35,1
888,35,9
889,35,18
890,34,6
891,34,-2
892,30,-5
893,26,6
894,28,3
895,28,4
896,22,10
897,19,8
898,17,11
899,18,7
900,14,6
901,6,6
902,12,9
903,6,2
904,8,6
905,10,10
906,3,10
907,10,6
908,11,8
909,5,9
910,5,3
911,0,7
912,-1,1
913,-1,5
914,-1,5
915,-5,12
916,1,10
917,-2,13
918,6,32
919,16,5
920,45,-12
921,56,6
922,51,1
923,36,-12
924,19,-9
925,15,0
926,-3,6
927,-10,0
928,-12,2
929,-13,7
930,-9,2
931,-15,2
932,-10,0
933,-10,12
934,-8,29
935,97,-19
936,289,-69
937,279,-201
938,-29,-192
939,-106,-67
940,-47,-40
941,-20,-19
942,-23,-2
943,-29,0
944,-28,1
945,-33,6
946,-24,3
947,-24,7
948,-25,6
949,-21,13
950,-16,9
951,-34,13
952,-33,42
953,-14,0
954,-22,-16
955,-14,0
956,-20,2
957,18,-4
958,-6,-4
959,-45,2
960,-21,-3
961,-9,0
962,0,0
963,0,-3
964,12,-4
965,13,-9
966,12,-7
967,16,-6
968,17,-9
969,15,-7
970,20,-16
971,34,-6
972,38,9
973,41,22
974,66,-28
975,88,-31
976,38,9
977,85,11
978,53,2
979,-58,8
980,10,-25
981,0,0
982,-51,20
983,8,-1
984,-19,8
985,-7,14
986,7,-4
987,17,-2
988,16,-2
989,22,1
990,38,-1
991,27,0
992,24,3
993,67,5
994,22,28
995,10,7
996,52,-14
997,18,0
998,-44,18
999,-24,9
1000,18,-32
1001,-26,3
1002,-16,25
1003,16,-1
1004,-15,-1
1005,-7,-5
1006,11,25
1007,9,-32
1008,-4,-21
1009,0,6
1010,-25,10
1011,-19,9
1012,-25,12
1013,-22,-5
1014,0,28
1015,6,21
1016,-3,-14
1017,-16,-14
1018,-6,-5
1019,30,-11
1020,41,0
1021,15,10
1022,25,7
1023,36,-15
1024,35,10
1025,0,6
1026,0,10
1027,3,-8
1028,1,17
1029,3,22
1030,-5,-18
1031,-45,-5
1032,-5,0
1033,0,20
1034,14,33
1035,109,1
1036,243,-40
1037,323,-188
1038,44,-211
1039,-139,-104
1040,-58,-50
1041,-15,-28
1042,-22,0
1043,-37,12
1044,-26,15
1045,-14,2
1046,-2,19
1047,-20,27
1048,-34,-2
1049,-5,12
1050,11,28
1051,5,-16
1052,36,13
1053,-40,15
1054,-31,11
1055,-37,39
1056,1,-9
1057,9,9
1058,-10,32
1059,8,-8
1060,25,-20
1061,32,4
1062,-7,23
1063,24,-17
1064,57,19
1065,32,6
1066,34,-11
1067,28,-1
1068,44,3
1069,82,-30
1070,136,-41
1071,56,21
1072,73,-4
1073,117,-39
1074,31,-9
1075,88,-42
1076,14,-9
1077,15,12
1078,32,-14
1079,31,13
1080,1,11
1081,17,24
1082,41,26
1083,36,-24
1084,37,-11
1085,44,-12
1086,68,-3
1087,99,-19
1088,86,13
1089,90,-38
1090,41,10
1091,24,-4
1092,48,-6
1093,63,-31
1094,48,6
1095,56,-33
1096,107,-36
1097,112,-23
1098,4,14
1099,75,0
1100,32,-27
1101,2,-10
1102,14,-15
1103,42,-32
1104,52,-11
1105,92,-31
1106,5,13
1107,3,8
1108,40,4
1109,37,-46
1110,13,-32
1111,9,-21
1112,16,-5
1113,30,-14
1114,63,-20
1115,33,-16
1116,0,-21
1117,47,-1
1118,14,20
1119,43,-39
1120,44,-8
1121,91,-36
1122,51,0
1123,43,-2
1124,59,-50
1125,13,1
1126,48,-42
1127,-40,-7
1128,-7,-13
1129,23,-43
1130,31,-35
1131,20,-13
1132,-11,-4
1133,10,29
1134,40,39
1135,149,-43
1136,314,-114
1137,119,-245
1138,-104,-167
1139,-100,-68
1140,-29,-51
1141,19,-38
1142,-40,-3
1143,-45,21
1144,-18,0
1145,-6,-13
1146,4,-29
1147,28,-24
1148,-37,-16
1149,-23,0
1150,-39,21
1151,-34,-22
1152,-5,-11
1153,-38,-7
1154,-40,-8
1155,-45,45
1156,-36,-26
1157,-26,-26
1158,-6,-19
1159,49,-21
1160,-18,-12
1161,-33,16
1162,-27,-21
1163,-24,-6
1164,-10,15
1165,15,-13
1166,24,-45
1167,-6,-16
1168,-7,-31
1169,-7,-20
1170,11,-29
1171,11,-23
1172,35,-22
1173,13,-5
1174,38,-25
1175,0,-15
1176,1,-2
1177,-16,4
1178,-15,-11
1179,-21,-8
1180,-10,-4
1181,-36,1
1182,-46,4
1183,-50,6
1184,-21,11
1185,-18,20
1186,-28,3
1187,-7,-6
1188,8,0
1189,-12,-8
1190,-14,-12
1191,-32,3
1192,-23,4
1193,-12,23
1194,-37,-19
1195,-73,20
1196,-7,11
1197,-51,0
1198,-43,-15
1199,-42,10
1200,-63,16
1201,-41,8
1202,-32,-11
1203,-11,1
1204,-76,16
1205,-37,14
1206,-43,5
1207,-75,17
1208,-88,19
1209,-58,9
1210,-42,4
1211,-32,21
1212,-50,5
1213,-35,18
1214,-85,9
1215,-71,22
1216,-45,2
1217,-45,9
1218,-1,16
1219,-16,11
1220,9,15
1221,4,0
1222,-31,-1
1223,-35,17
1224,-38,3
1225,-51,21
1226,-48,11
1227,-42,1
1228,-35,8
1229,-67,18
1230,-61,10
1231,-67,17
1232,-27,17
1233,-69,40
1234,30,-3
1235,226,-51
1236,243,-190
1237,-56,-169
1238,-128,-68
1239,-101,-13
1240,-56,2
1241,-56,-10
1242,-58,11
1243,-65,22
1244,-69,27
1245,-68,20
1246,-48,35
1247,-53,26
1248,-43,24
1249,-69,21
1250,-59,17
1251,-35,25
1252,-57,20
1253,-50,26
1254,-51,28
1255,-43,22
1256,-30,25
1257,-8,21
1258,-39,28
1259,-26,25
1260,-19,21
1261,-3,22
1262,-15,26
1263,-32,23
1264,3,22
1265,15,9
1266,-16,12
1267,-2,11
1268,19,10
1269,11,14
1270,15,13
1271,47,13
1272,50,10
1273,9,22
1274,22,15
1275,7,24
1276,-5,27
1277,-2,27
1278,-37,39
1279,-21,36
