,0,1
0,1,-43
1,5,-38
2,8,-33
3,10,-22
4,7,-18
5,8,-15
6,6,-12
7,0,-17
8,-5,-23
9,-8,-38
10,-3,-42
11,-7,-44
12,-5,-48
13,-3,-53
14,-3,-53
15,-5,-50
16,-5,-53
17,-6,-56
18,-4,-55
19,-2,-55
20,-4,-54
21,-3,-53
22,0,-55
23,-1,-58
24,-2,-72
25,16,-85
26,54,-42
27,75,90
28,30,140
29,-36,53
30,-45,-86
31,-22,-152
32,-7,-117
33,-7,-63
34,-4,-56
35,-7,-54
36,-6,-55
37,-6,-56
38,-3,-53
39,-2,-49
40,-1,-53
41,-2,-56
42,0,-53
43,0,-48
44,-1,-51
45,0,-48
46,1,-46
47,0,-47
48,1,-44
49,0,-42
50,-1,-40
51,2,-35
52,2,-30
53,1,-30
54,2,-31
55,1,-29
56,2,-20
57,0,-21
58,2,-17
59,2,-15
60,2,-11
61,6,-10
62,4,-8
63,8,-11
64,9,-10
65,10,-16
66,10,-15
67,10,-21
68,7,-22
69,6,-34
70,6,-36
71,8,-37
72,6,-38
73,5,-38
74,8,-35
75,7,-35
76,6,-40
77,6,-34
78,4,-41
79,3,-35
80,7,-35
81,7,-34
82,5,-32
83,4,-33
84,7,-32
85,7,-35
86,5,-32
87,6,-33
88,4,-37
89,5,-34
90,5,-34
91,3,-39
92,1,-34
93,2,-39
94,0,-37
95,2,-42
96,5,-38
97,7,-29
98,11,-20
99,13,-17
100,8,-14
101,4,-11
102,0,-18
103,-6,-27
104,-8,-43
105,-3,-40
106,-1,-51
107,0,-54
108,0,-52
109,0,-54
110,0,-58
111,0,-59
112,-1,-58
113,-3,-60
114,-4,-58
115,-4,-58
116,0,-59
117,0,-56
118,-3,-62
119,0,-84
120,24,-85
121,66,-18
122,60,110
123,-2,88
124,-52,3
125,-31,-134
126,-14,-140
127,-7,-87
128,-8,-62
129,-7,-58
130,-7,-60
131,-6,-59
132,-4,-59
133,-4,-58
134,-5,-60
135,-5,-54
136,-3,-57
137,-3,-56
138,-2,-53
139,-5,-56
140,-5,-56
141,-4,-54
142,0,-52
143,0,-49
144,-1,-48
145,-2,-43
146,-1,-44
147,-1,-41
148,0,-38
149,1,-31
150,0,-28
151,0,-34
152,3,-32
153,0,-26
154,3,-21
155,4,-18
156,4,-16
157,9,-15
158,11,-15
159,8,-15
160,10,-16
161,10,-19
162,7,-32
163,8,-34
164,6,-34
165,8,-37
166,9,-39
167,3,-35
168,5,-44
169,9,-40
170,9,-39
171,9,-39
172,11,-35
173,11,-36
174,7,-34
175,11,-31
176,12,-32
177,11,-28
178,14,-34
179,9,-29
180,9,-31
181,12,-30
182,12,-29
183,9,-35
184,8,-32
185,7,-31
186,11,-36
187,8,-34
188,6,-36
189,7,-39
190,9,-36
191,9,-33
192,13,-30
193,15,-27
194,18,-11
195,15,-5
196,17,-5
197,10,-6
198,5,-17
199,1,-27
200,5,-35
201,6,-36
202,8,-41
203,8,-45
204,5,-47
205,6,-46
206,5,-46
207,7,-48
208,6,-47
209,3,-45
210,5,-44
211,8,-46
212,7,-45
213,6,-46
214,6,-63
215,21,-76
216,57,-32
217,82,99
218,44,143
219,-14,54
220,-36,-9
221,-17,-116
222,-2,-118
223,2,-58
224,0,-49
225,4,-46
226,4,-45
227,-2,-45
228,2,-51
229,0,-51
230,0,-44
231,1,-51
232,0,-46
233,0,-50
234,0,-46
235,-1,-45
236,0,-42
237,0,-39
238,0,-40
239,0,-37
240,3,-39
241,0,-35
242,0,-36
243,-2,-30
244,0,-30
245,0,-22
246,3,-17
247,1,-18
248,0,-23
249,1,-22
250,0,-10
251,3,-16
252,4,-12
253,7,-10
254,11,-6
255,11,-8
256,13,-11
257,14,-16
258,13,-27
259,9,-26
260,5,-34
261,8,-36
262,6,-35
263,7,-34
264,11,-34
265,9,-37
266,11,-37
267,8,-34
268,11,-34
269,12,-34
270,11,-28
271,11,-28
272,11,-27
273,9,-25
274,9,-25
275,10,-24
276,10,-25
277,7,-32
278,9,-26
279,8,-28
280,9,-32
281,6,-34
282,8,-32
283,9,-35
284,6,-34
285,7,-35
286,9,-35
287,13,-30
288,14,-20
289,15,-13
290,15,-8
291,14,-4
292,11,-5
293,5,-14
294,1,-28
295,4,-31
296,5,-32
297,5,-37
298,5,-41
299,6,-44
300,5,-44
301,4,-48
302,8,-44
303,7,-45
304,8,-45
305,11,-42
306,7,-43
307,9,-46
308,8,-48
309,6,-64
310,30,-66
311,62,-7
312,77,139
313,57,179
314,16,73
315,-17,0
316,-9,-127
317,0,-119
318,1,-60
319,2,-52
320,0,-52
321,0,-48
322,2,-45
323,1,-45
324,0,-43
325,0,-48
326,0,-50
327,0,-48
328,1,-44
329,2,-41
330,1,-43
331,3,-45
332,0,-38
333,1,-39
334,4,-36
335,3,-31
336,0,-31
337,2,-29
338,2,-25
339,4,-23
340,3,-16
341,2,-15
342,1,-22
343,1,-20
344,0,-18
345,0,-17
346,1,-12
347,3,-12
348,6,-12
349,7,-9
350,7,-9
351,9,-11
352,11,-15
353,8,-24
354,6,-26
355,6,-30
356,6,-35
357,4,-39
358,6,-36
359,2,-38
360,3,-38
361,7,-39
362,1,-32
363,5,-33
364,5,-28
365,2,-31
366,5,-29
367,3,-28
368,3,-30
369,1,-29
370,3,-27
371,1,-28
372,0,-34
373,0,-30
374,0,-34
375,0,-31
376,-1,-35
377,0,-31
378,0,-37
379,0,-39
380,0,-35
381,0,-39
382,2,-35
383,4,-26
384,8,-23
385,12,-13
386,9,-11
387,7,-8
388,1,-12
389,-4,-21
390,-2,-32
391,0,-38
392,-1,-38
393,0,-45
394,2,-47
395,-3,-49
396,0,-48
397,-1,-48
398,0,-49
399,0,-49
400,0,-46
401,0,-47
402,-1,-44
403,-1,-51
404,-1,-64
405,9,-75
406,33,-66
407,77,32
408,84,185
409,38,176
410,-25,64
411,-31,-73
412,-12,-131
413,-5,-77
414,-4,-55
415,-4,-51
416,-2,-54
417,-2,-53
418,-4,-51
419,-2,-54
420,-1,-52
421,-3,-52
422,-2,-49
423,-1,-49
424,-3,-49
425,0,-53
426,0,-44
427,0,-45
428,1,-42
429,0,-38
430,4,-37
431,2,-32
432,2,-28
433,0,-24
434,4,-28
435,3,-24
436,5,-20
437,3,-12
438,4,-10
439,2,-10
440,6,-7
441,5,-7
442,6,-6
443,8,-2
444,13,-2
445,13,-5
446,13,-13
447,9,-15
448,5,-19
449,7,-23
450,10,-32
451,3,-25
452,4,-33
453,3,-32
454,5,-35
455,5,-32
456,7,-38
457,6,-35
458,7,-32
459,6,-35
460,7,-33
461,6,-30
462,5,-29
463,3,-30
464,4,-30
465,4,-27
466,3,-28
467,3,-27
468,3,-27
469,4,-29
470,6,-28
471,2,-31
472,4,-31
473,1,-31
474,4,-33
475,3,-32
476,6,-31
477,4,-29
478,11,-29
479,12,-21
480,13,-10
481,11,-5
482,6,-1
483,0,-13
484,-2,-24
485,-5,-31
486,-1,-32
487,-1,-36
488,0,-46
489,0,-48
490,0,-47
491,-2,-48
492,-4,-49
493,-1,-46
494,-3,-48
495,-6,-53
496,-1,-51
497,-2,-54
498,-1,-53
499,-3,-63
500,3,-80
501,23,-71
502,53,-18
503,73,68
504,25,133
505,-34,50
506,-36,-97
507,-9,-121
508,-2,-58
509,-6,-62
510,-5,-56
511,-4,-47
512,-5,-54
513,-3,-53
514,-2,-54
515,0,-50
516,0,-51
517,0,-55
518,-1,-50
519,-1,-52
520,-2,-47
521,0,-49
522,0,-49
523,0,-49
524,-1,-46
525,2,-40
526,2,-40
527,0,-38
528,3,-33
529,4,-30
530,4,-29
531,3,-25
532,5,-23
533,2,-16
534,7,-16
535,6,-16
536,7,-12
537,7,-9
538,8,-9
539,5,-9
540,15,-11
541,10,-14
542,10,-18
543,7,-26
544,5,-28
545,5,-24
546,6,-34
547,4,-38
548,3,-37
549,5,-36
550,5,-38
551,10,-38
552,5,-36
553,7,-35
554,9,-34
555,9,-31
556,9,-34
557,11,-33
558,7,-29
559,10,-32
560,9,-31
561,12,-31
562,11,-28
563,10,-30
564,8,-29
565,8,-31
566,8,-31
567,8,-32
568,8,-36
569,14,-34
570,12,-34
571,5,-36
572,11,-29
573,16,-25
574,20,-21
575,20,-12
576,15,-7
577,7,-5
578,6,-13
579,3,-20
580,0,-32
581,2,-38
582,6,-39
583,4,-45
584,4,-44
585,5,-49
586,6,-49
587,4,-49
588,3,-46
589,3,-46
590,5,-48
591,5,-48
592,8,-50
593,7,-47
594,0,-59
595,1,-79
596,22,-83
597,59,-42
598,84,85
599,31,125
600,-35,41
601,-27,-111
602,-2,-118
603,3,-57
604,2,-55
605,2,-45
606,0,-48
607,2,-47
608,3,-49
609,1,-51
610,5,-49
611,4,-48
612,2,-48
613,1,-45
614,2,-45
615,1,-46
616,5,-42
617,0,-43
618,2,-39
619,4,-37
620,2,-38
621,1,-37
622,5,-36
623,2,-32
624,3,-26
625,5,-24
626,3,-22
627,6,-21
628,7,-17
629,3,-17
630,4,-11
631,5,-7
632,8,-10
633,6,-10
634,11,-7
635,10,-8
636,11,-13
637,10,-12
638,11,-19
639,7,-23
640,5,-27
641,7,-32
642,5,-37
643,8,-38
644,7,-41
645,7,-37
646,6,-35
647,7,-33
648,6,-35
649,10,-32
650,7,-29
651,9,-34
652,8,-34
653,5,-31
654,8,-24
655,12,-28
656,8,-27
657,7,-34
658,8,-33
659,6,-32
660,6,-35
661,6,-27
662,7,-34
663,9,-34
664,7,-31
665,7,-34
666,7,-37
667,7,-32
668,8,-38
669,14,-25
670,17,-19
671,16,-5
672,14,-5
673,10,-6
674,5,-12
675,1,-16
676,0,-35
677,3,-35
678,4,-36
679,3,-41
680,0,-50
681,4,-46
682,4,-46
683,2,-44
684,0,-44
685,1,-43
686,7,-46
687,7,-44
688,5,-37
689,3,-44
690,6,-55
691,10,-72
692,36,-61
693,71,18
694,73,163
695,27,123
696,-26,26
697,-32,-84
698,-8,-150
699,1,-91
700,3,-43
701,1,-48
702,3,-43
703,2,-50
704,2,-52
705,2,-50
706,6,-48
707,3,-43
708,3,-45
709,2,-43
710,4,-45
711,2,-40
712,3,-42
713,3,-42
714,4,-40
715,1,-36
716,3,-31
717,2,-26
718,4,-27
719,4,-33
720,4,-23
721,3,-22
722,3,-19
723,5,-18
724,2,-15
725,2,-13
726,2,-13
727,2,-8
728,4,-10
729,6,-5
730,7,-6
731,8,2
732,9,-5
733,9,-14
734,9,-16
735,8,-21
736,10,-25
737,9,-27
738,6,-29
739,7,-32
740,9,-31
741,8,-30
742,3,-32
743,8,-31
744,6,-28
745,10,-28
746,8,-26
747,8,-22
748,5,-23
749,6,-22
750,6,-20
751,6,-22
752,3,-21
753,4,-22
754,2,-25
755,1,-25
756,0,-26
757,0,-28
758,2,-29
759,1,-32
760,0,-30
761,1,-34
762,2,-31
763,2,-25
764,6,-22
765,7,-17
766,8,-12
767,8,-10
768,5,-6
769,2,-10
770,-2,-19
771,-4,-31
772,1,-35
773,0,-34
774,-2,-40
775,0,-45
776,0,-47
777,-1,-48
778,-1,-47
779,-2,-50
780,-1,-48
781,0,-47
782,-2,-49
783,0,-44
784,1,-47
785,-2,-58
786,7,-80
787,32,-54
788,63,34
789,77,205
790,52,222
791,-8,82
792,-28,-59
793,-14,-143
794,-8,-95
795,-7,-52
796,-5,-47
797,-4,-50
798,-6,-50
799,-3,-45
800,-6,-49
801,-2,-52
802,-4,-49
803,-5,-47
804,-1,-46
805,-1,-46
806,-3,-47
807,-4,-45
808,0,-44
809,-3,-40
810,-4,-34
811,0,-31
812,0,-32
813,-2,-30
814,0,-24
815,0,-18
816,0,-20
817,-1,-20
818,-1,-15
819,0,-12
820,0,-15
821,-1,-10
822,1,-8
823,1,-7
824,2,-7
825,5,-7
826,6,-7
827,6,-7
828,9,-11
829,8,-12
830,8,-20
831,7,-25
832,5,-16
833,2,-28
834,8,-31
835,7,-30
836,3,-31
837,3,-31
838,2,-28
839,5,-31
840,6,-24
841,7,-25
842,4,-21
843,8,-23
844,5,-23
845,6,-24
846,2,-20
847,3,-19
848,3,-22
849,3,-22
850,2,-22
851,0,-28
852,1,-24
853,0,-26
854,2,-28
855,3,-26
856,0,-29
857,1,-40
858,1,-36
859,4,-28
860,9,-21
861,12,-7
862,9,-7
863,6,-2
864,1,-9
865,-1,-14
866,-6,-21
867,-3,-30
868,-3,-32
869,-2,-39
870,-5,-43
871,-3,-43
872,-4,-46
873,-4,-48
874,-4,-44
875,-3,-47
876,-3,-42
877,-4,-49
878,-5,-46
879,-2,-44
880,-5,-55
881,-3,-77
882,8,-77
883,32,-49
884,72,61
885,39,158
886,-23,75
887,-44,-53
888,-18,-131
889,-9,-81
890,-9,-52
891,-9,-47
892,-11,-50
893,-8,-50
894,-12,-49
895,-8,-46
896,-7,-53
897,-9,-51
898,-9,-44
899,-3,-47
900,-7,-45
901,-5,-48
902,-5,-45
903,-9,-46
904,-6,-41
905,-4,-38
906,-4,-37
907,-7,-32
908,-3,-30
909,-4,-28
910,-5,-30
911,-4,-20
912,-6,-16
913,-3,-14
914,-1,-14
915,-4,-8
916,1,-8
917,-5,-7
918,-2,-4
919,0,-3
920,2,0
921,3,-3
922,6,-9
923,5,-12
924,3,-17
925,2,-21
926,1,-25
927,0,-32
928,1,-34
929,1,-35
930,0,-38
931,-1,-38
932,1,-32
933,0,-38
934,3,-35
935,0,-31
936,0,-31
937,1,-32
938,0,-30
939,3,-30
940,1,-27
941,4,-25
942,1,-28
943,2,-28
944,3,-25
945,2,-28
946,2,-29
947,-1,-32
948,3,-31
949,1,-31
950,3,-30
951,0,-30
952,2,-30
953,0,-29
954,1,-32
955,7,-23
956,11,-11
957,8,-10
958,11,-6
959,9,-1
960,-1,-12
961,-3,-18
962,-4,-31
963,-3,-36
964,-2,-37
965,-1,-44
966,-1,-45
967,-2,-47
968,-2,-46
969,-3,-51
970,-1,-44
971,-2,-50
972,0,-48
973,0,-48
974,0,-48
975,-1,-43
976,0,-54
977,1,-71
978,22,-72
979,69,-11
980,71,131
981,8,107
982,-54,25
983,-52,-129
984,-17,-151
985,-3,-77
986,-4,-50
987,-4,-49
988,-3,-52
989,-5,-50
990,-2,-44
991,-3,-47
992,-4,-49
993,-2,-44
994,-3,-45
995,-4,-47
996,-5,-45
997,-4,-47
998,-7,-46
999,-1,-41
1000,-4,-43
1001,-2,-38
1002,0,-38
1003,-3,-37
1004,-3,-27
1005,0,-28
1006,-4,-30
1007,-2,-28
1008,-2,-18
1009,-5,-22
1010,-1,-22
1011,-2,-16
1012,0,-13
1013,0,-10
1014,4,-6
1015,1,-5
1016,4,-5
1017,3,-13
1018,4,-15
1019,0,-16
1020,3,-19
1021,-2,-24
1022,1,-30
1023,-4,-39
1024,-1,-33
1025,-3,-38
1026,2,-38
1027,-3,-40
1028,0,-38
1029,-1,-36
1030,0,-38
1031,-2,-36
1032,2,-36
1033,0,-32
1034,0,-34
1035,-1,-35
1036,0,-37
1037,0,-34
1038,-1,-34
1039,0,-36
1040,0,-35
1041,0,-33
1042,-1,-33
1043,-3,-36
1044,0,-33
1045,-2,-42
1046,0,-41
1047,0,-41
1048,-2,-40
1049,0,-38
1050,4,-31
1051,6,-28
1052,7,-15
1053,6,-11
1054,5,-8
1055,0,-12
1056,-8,-25
1057,-8,-36
1058,-6,-38
1059,-3,-41
1060,0,-42
1061,-5,-49
1062,-5,-51
1063,-3,-50
1064,0,-47
1065,0,-46
1066,-3,-48
1067,-2,-47
1068,-1,-50
1069,-1,-51
1070,0,-50
1071,-1,-53
1072,0,-71
1073,19,-73
1074,47,-23
1075,76,59
1076,54,140
1077,-9,77
1078,-35,-41
1079,-17,-131
1080,-1,-79
1081,-1,-49
1082,-2,-46
1083,-1,-45
1084,-5,-46
1085,-2,-47
1086,-2,-46
1087,-3,-48
1088,-1,-44
1089,-3,-44
1090,-4,-45
1091,-1,-40
1092,0,-41
1093,-2,-45
1094,-1,-45
1095,-4,-41
1096,-3,-40
1097,-1,-34
1098,-5,-31
1099,-2,-33
1100,-1,-28
1101,-2,-26
1102,-2,-21
1103,0,-22
1104,-4,-16
1105,0,-15
1106,0,-6
1107,-1,-11
1108,0,-6
1109,3,-5
1110,2,-4
1111,5,-3
1112,7,-1
1113,7,-2
1114,9,-9
1115,6,-17
1116,4,-24
1117,3,-20
1118,3,-22
1119,0,-26
1120,2,-33
1121,3,-36
1122,3,-28
1123,2,-30
1124,1,-30
1125,2,-28
1126,3,-26
1127,0,-25
1128,1,-26
1129,3,-22
1130,0,-23
1131,2,-22
1132,1,-25
1133,1,-24
1134,0,-24
1135,-1,-20
1136,0,-24
1137,1,-27
1138,-1,-24
1139,-2,-34
1140,-2,-36
1141,0,-30
1142,-2,-32
1143,-1,-29
1144,-3,-31
1145,0,-26
1146,7,-17
1147,4,-6
1148,7,-8
1149,7,-1
1150,1,-4
1151,-5,-14
1152,-6,-29
1153,-4,-32
1154,-4,-36
1155,-2,-41
1156,-1,-40
1157,-2,-46
1158,-5,-44
1159,-4,-45
1160,-2,-44
1161,-1,-44
1162,0,-47
1163,-1,-46
1164,0,-40
1165,0,-46
1166,-1,-52
1167,-1,-69
1168,18,-66
1169,53,5
1170,69,156
1171,25,156
1172,-28,27
1173,-29,-118
1174,-12,-163
1175,-13,-127
1176,-12,-60
1177,-8,-47
1178,-10,-49
1179,-8,-45
1180,-7,-47
1181,-6,-48
1182,-6,-50
1183,-8,-44
1184,-8,-46
1185,-4,-44
1186,-6,-45
1187,-4,-44
1188,-8,-43
1189,-5,-39
1190,-7,-42
1191,-3,-39
1192,-6,-35
1193,-5,-35
1194,-4,-27
1195,-2,-27
1196,-4,-25
1197,-5,-23
1198,-2,-17
1199,-4,-26
1200,-1,-16
1201,-2,-16
1202,-2,-20
1203,0,-10
1204,0,-15
1205,3,-10
1206,4,-7
1207,5,0
1208,7,-4
1209,8,-6
1210,9,-9
1211,8,-17
1212,6,-22
1213,5,-24
1214,7,-28
1215,5,-34
1216,3,-30
1217,7,-28
1218,5,-24
1219,2,-29
1220,11,-22
1221,4,-24
1222,5,-23
1223,6,-17
1224,5,-19
1225,1,-19
1226,7,-20
1227,4,-17
1228,3,-21
1229,5,-23
1230,2,-24
1231,0,-30
1232,3,-26
1233,4,-28
1234,5,-30
1235,2,-27
1236,1,-30
1237,1,-30
1238,8,-28
1239,5,-24
1240,10,-15
1241,10,-8
1242,12,-7
1243,9,0
1244,2,-2
1245,0,-14
1246,-4,-25
1247,0,-34
1248,0,-36
1249,0,-39
1250,-3,-40
1251,-3,-43
1252,0,-44
1253,0,-46
1254,-3,-45
1255,-1,-48
1256,0,-50
1257,0,-43
1258,0,-47
1259,0,-47
1260,-1,-49
1261,3,-75
1262,22,-72
1263,60,-9
1264,83,129
1265,59,189
1266,-10,87
1267,-35,-38
1268,-19,-133
1269,-10,-90
1270,-5,-55
1271,-8,-49
1272,-8,-50
1273,-9,-52
1274,-8,-51
1275,-7,-52
1276,-8,-51
1277,-8,-54
1278,-8,-54
1279,-7,-51
