,0,1
0,10,-8
1,2,-12
2,-4,-26
3,-7,-34
4,-6,-48
5,-4,-53
6,-3,-57
7,-4,-56
8,-6,-60
9,-6,-65
10,-7,-61
11,-4,-63
12,-7,-64
13,-6,-61
14,-8,-66
15,-6,-64
16,-6,-60
17,-5,-67
18,-5,-78
19,4,-90
20,27,-81
21,63,-1
22,64,148
23,13,105
24,-33,-10
25,-19,-148
26,-13,-152
27,-9,-89
28,-8,-65
29,-9,-64
30,-11,-65
31,-11,-62
32,-6,-66
33,-9,-63
34,-9,-68
35,-7,-64
36,-9,-61
37,-9,-63
38,-7,-61
39,-10,-62
40,-11,-61
41,-13,-61
42,-10,-57
43,-11,-58
44,-9,-53
45,-11,-52
46,-12,-50
47,-12,-45
48,-13,-44
49,-11,-42
50,-13,-38
51,-12,-36
52,-14,-32
53,-12,-32
54,-11,-31
55,-13,-24
56,-9,-21
57,-8,-22
58,-4,-23
59,-1,-26
60,-3,-28
61,-4,-35
62,-1,-42
63,-4,-43
64,-4,-46
65,-3,-49
66,-3,-51
67,-9,-53
68,-4,-53
69,-5,-50
70,-5,-54
71,-3,-53
72,-2,-52
73,-3,-50
74,-1,-49
75,-1,-45
76,-2,-44
77,-1,-44
78,-1,-45
79,-1,-44
80,1,-42
81,-1,-41
82,-1,-42
83,0,-42
84,-5,-44
85,-3,-46
86,-4,-48
87,0,-47
88,-3,-44
89,0,-46
90,6,-33
91,7,-24
92,1,-24
93,3,-21
94,-3,-25
95,-5,-32
96,-11,-47
97,-7,-51
98,-5,-51
99,-6,-54
100,-5,-60
101,-5,-62
102,-4,-63
103,-7,-63
104,-3,-64
105,-7,-63
106,-7,-65
107,-6,-67
108,-5,-67
109,-6,-65
110,-4,-67
111,-3,-78
112,11,-92
113,48,-65
114,86,44
115,78,170
116,22,137
117,-34,18
118,-27,-119
119,-10,-144
120,-5,-84
121,-9,-67
122,-11,-71
123,-9,-71
124,-10,-68
125,-9,-71
126,-11,-76
127,-13,-72
128,-9,-72
129,-11,-70
130,-15,-68
131,-12,-69
132,-13,-69
133,-12,-68
134,-12,-67
135,-10,-66
136,-13,-62
137,-11,-60
138,-12,-59
139,-12,-55
140,-16,-49
141,-13,-51
142,-12,-45
143,-15,-45
144,-13,-40
145,-10,-37
146,-14,-31
147,-12,-31
148,-11,-30
149,-11,-29
150,-8,-25
151,-5,-27
152,-6,-34
153,-4,-38
154,-7,-44
155,-6,-47
156,-6,-56
157,-8,-60
158,-8,-61
159,-8,-60
160,-8,-62
161,-12,-63
162,-5,-65
163,-9,-64
164,-7,-61
165,-8,-63
166,-2,-62
167,-3,-61
168,-7,-62
169,-6,-58
170,-6,-58
171,-7,-59
172,-8,-59
173,-7,-56
174,-3,-56
175,-1,-56
176,-4,-56
177,-4,-54
178,-2,-55
179,-4,-57
180,-4,-56
181,-5,-56
182,0,-52
183,5,-45
184,5,-35
185,6,-32
186,6,-33
187,-1,-28
188,-8,-37
189,-10,-50
190,-7,-59
191,-7,-62
192,-6,-62
193,-8,-69
194,-5,-73
195,-7,-72
196,-8,-70
197,-5,-70
198,-2,-69
199,-4,-70
200,-1,-70
201,-6,-73
202,-4,-72
203,-1,-72
204,-4,-76
205,0,-92
206,17,-95
207,61,-52
208,77,58
209,15,97
210,-44,29
211,-60,-85
212,-24,-161
213,-8,-116
214,-5,-77
215,-9,-74
216,-5,-76
217,-8,-73
218,-7,-72
219,-5,-70
220,-5,-69
221,-8,-76
222,-3,-70
223,-3,-71
224,-4,-73
225,-3,-70
226,-4,-68
227,1,-68
228,-6,-59
229,-6,-65
230,-3,-66
231,-2,-63
232,-2,-57
233,-1,-53
234,-3,-48
235,-1,-44
236,-2,-43
237,-4,-43
238,-2,-36
239,-3,-33
240,-1,-30
241,-1,-26
242,0,-23
243,2,-27
244,4,-27
245,3,-33
246,5,-37
247,2,-41
248,3,-44
249,4,-52
250,2,-57
251,0,-56
252,0,-57
253,0,-62
254,0,-63
255,3,-64
256,-2,-64
257,0,-63
258,0,-65
259,-3,-61
260,0,-64
261,1,-67
262,2,-62
263,1,-61
264,0,-61
265,-1,-63
266,0,-63
267,0,-62
268,-1,-60
269,-2,-61
270,-2,-60
271,0,-58
272,-3,-60
273,-2,-63
274,0,-58
275,4,-57
276,4,-46
277,11,-39
278,5,-37
279,8,-32
280,-1,-38
281,-5,-48
282,-10,-49
283,-9,-59
284,-4,-63
285,-4,-65
286,-7,-73
287,-6,-76
288,-3,-72
289,-6,-76
290,-4,-77
291,-4,-75
292,-6,-72
293,-7,-74
294,-2,-76
295,-3,-74
296,-3,-74
297,-4,-82
298,-5,-103
299,8,-104
300,44,-81
301,76,15
302,27,88
303,-41,23
304,-40,-95
305,-9,-140
306,-4,-88
307,-6,-73
308,-8,-73
309,-8,-72
310,-7,-72
311,-11,-73
312,-7,-73
313,-7,-71
314,-4,-69
315,-2,-71
316,-4,-69
317,-6,-64
318,-1,-66
319,-10,-64
320,-4,-65
321,-4,-62
322,-1,-57
323,-1,-57
324,-4,-54
325,-5,-52
326,-3,-51
327,-4,-43
328,-2,-42
329,-2,-39
330,-3,-33
331,-3,-31
332,-2,-28
333,-3,-24
334,0,-21
335,0,-22
336,2,-18
337,4,-20
338,7,-24
339,4,-30
340,1,-36
341,2,-40
342,6,-43
343,2,-47
344,1,-49
345,0,-53
346,0,-57
347,0,-55
348,0,-55
349,0,-54
350,1,-54
351,0,-56
352,2,-53
353,-1,-56
354,0,-54
355,1,-56
356,0,-53
357,0,-52
358,0,-53
359,0,-53
360,0,-46
361,-1,-49
362,0,-44
363,-1,-48
364,-1,-45
365,-2,-50
366,-2,-47
367,-1,-47
368,1,-41
369,6,-36
370,8,-28
371,6,-23
372,3,-19
373,-2,-29
374,-8,-33
375,-14,-47
376,-12,-54
377,-8,-55
378,-8,-57
379,-11,-62
380,-11,-66
381,-9,-66
382,-9,-62
383,-12,-62
384,-9,-60
385,-9,-61
386,-10,-67
387,-11,-64
388,-10,-65
389,-8,-66
390,-7,-83
391,5,-95
392,38,-62
393,69,40
394,61,140
395,23,80
396,-34,11
397,-37,-110
398,-21,-160
399,-15,-95
400,-18,-73
401,-16,-70
402,-14,-72
403,-14,-69
404,-17,-64
405,-15,-69
406,-15,-65
407,-14,-67
408,-13,-69
409,-14,-67
410,-14,-67
411,-13,-64
412,-15,-59
413,-12,-64
414,-16,-59
415,-14,-59
416,-17,-55
417,-15,-50
418,-15,-52
419,-14,-45
420,-18,-39
421,-16,-39
422,-15,-36
423,-18,-37
424,-15,-29
425,-16,-31
426,-14,-21
427,-14,-19
428,-13,-16
429,-11,-19
430,-6,-21
431,-10,-18
432,-5,-30
433,-7,-32
434,-8,-38
435,-11,-46
436,-9,-52
437,-10,-54
438,-11,-56
439,-11,-55
440,-11,-55
441,-14,-58
442,-9,-56
443,-9,-59
444,-11,-56
445,-9,-58
446,-8,-54
447,-5,-52
448,-10,-53
449,-8,-48
450,-7,-47
451,-10,-46
452,-11,-46
453,-11,-44
454,-8,-43
455,-8,-44
456,-8,-46
457,-8,-46
458,-8,-49
459,-8,-47
460,-6,-47
461,0,-37
462,0,-28
463,0,-24
464,1,-17
465,-4,-23
466,-9,-29
467,-18,-34
468,-15,-44
469,-13,-53
470,-18,-54
471,-14,-58
472,-16,-61
473,-21,-66
474,-18,-69
475,-18,-63
476,-18,-63
477,-17,-66
478,-19,-67
479,-19,-66
480,-17,-64
481,-17,-62
482,-17,-68
483,-15,-78
484,-1,-88
485,29,-61
486,61,39
487,32,144
488,-27,53
489,-49,-48
490,-33,-158
491,-24,-123
492,-22,-74
493,-27,-65
494,-26,-64
495,-25,-66
496,-25,-64
497,-24,-66
498,-27,-64
499,-25,-62
500,-21,-62
501,-22,-66
502,-25,-62
503,-25,-62
504,-27,-62
505,-23,-62
506,-27,-59
507,-24,-58
508,-23,-56
509,-22,-53
510,-21,-50
511,-23,-51
512,-25,-46
513,-29,-40
514,-27,-41
515,-29,-35
516,-27,-33
517,-27,-31
518,-26,-29
519,-26,-25
520,-27,-26
521,-26,-24
522,-21,-24
523,-24,-27
524,-20,-31
525,-20,-33
526,-22,-37
527,-23,-43
528,-24,-49
529,-22,-53
530,-27,-52
531,-27,-56
532,-26,-58
533,-27,-55
534,-25,-60
535,-22,-59
536,-25,-53
537,-23,-57
538,-23,-57
539,-21,-58
540,-24,-56
541,-22,-58
542,-23,-50
543,-20,-50
544,-19,-50
545,-19,-48
546,-24,-46
547,-24,-49
548,-23,-49
549,-22,-49
550,-23,-50
551,-25,-48
552,-26,-51
553,-21,-51
554,-17,-45
555,-14,-36
556,-11,-23
557,-14,-26
558,-20,-23
559,-26,-27
560,-32,-37
561,-34,-46
562,-33,-52
563,-30,-53
564,-27,-59
565,-30,-62
566,-33,-65
567,-30,-64
568,-32,-64
569,-31,-65
570,-31,-66
571,-31,-64
572,-29,-65
573,-32,-67
574,-29,-65
575,-30,-68
576,-28,-83
577,-16,-92
578,6,-79
579,40,-28
580,45,78
581,-16,91
582,-67,12
583,-48,-120
584,-31,-114
585,-30,-70
586,-26,-62
587,-28,-60
588,-31,-58
589,-24,-63
590,-28,-62
591,-30,-62
592,-28,-60
593,-26,-58
594,-28,-57
595,-26,-56
596,-27,-59
597,-26,-56
598,-29,-54
599,-27,-55
600,-26,-53
601,-26,-51
602,-28,-49
603,-29,-44
604,-27,-40
605,-28,-37
606,-28,-37
607,-29,-35
608,-26,-30
609,-27,-23
610,-24,-20
611,-24,-19
612,-22,-14
613,-22,-12
614,-21,-8
615,-20,-11
616,-15,-12
617,-19,-16
618,-16,-22
619,-16,-26
620,-19,-31
621,-20,-37
622,-19,-44
623,-23,-39
624,-22,-45
625,-24,-49
626,-23,-48
627,-23,-48
628,-24,-48
629,-22,-48
630,-23,-48
631,-20,-48
632,-21,-46
633,-23,-46
634,-22,-47
635,-20,-46
636,-23,-43
637,-22,-47
638,-23,-47
639,-21,-44
640,-22,-44
641,-24,-44
642,-25,-42
643,-24,-47
644,-25,-45
645,-24,-47
646,-24,-45
647,-20,-38
648,-14,-30
649,-16,-22
650,-12,-22
651,-18,-13
652,-27,-23
653,-33,-31
654,-33,-42
655,-32,-43
656,-33,-51
657,-33,-59
658,-30,-60
659,-35,-63
660,-31,-62
661,-33,-63
662,-29,-65
663,-32,-63
664,-32,-67
665,-32,-67
666,-31,-68
667,-33,-66
668,-29,-67
669,-32,-77
670,-19,-91
671,9,-80
672,51,-7
673,41,106
674,-4,79
675,-63,25
676,-70,-73
677,-38,-135
678,-32,-76
679,-32,-66
680,-33,-64
681,-34,-68
682,-33,-66
683,-38,-64
684,-32,-64
685,-31,-68
686,-32,-58
687,-33,-62
688,-32,-61
689,-32,-58
690,-32,-57
691,-35,-61
692,-33,-60
693,-35,-58
694,-30,-58
695,-32,-55
696,-31,-51
697,-28,-48
698,-31,-47
699,-31,-42
700,-28,-37
701,-31,-32
702,-29,-34
703,-27,-29
704,-27,-22
705,-27,-21
706,-21,-20
707,-22,-13
708,-19,-15
709,-18,-19
710,-14,-20
711,-14,-21
712,-17,-30
713,-16,-35
714,-20,-42
715,-21,-45
716,-20,-46
717,-21,-51
718,-22,-47
719,-21,-52
720,-22,-48
721,-19,-52
722,-20,-52
723,-18,-52
724,-20,-48
725,-18,-48
726,-17,-48
727,-16,-48
728,-16,-51
729,-18,-48
730,-17,-48
731,-18,-48
732,-18,-47
733,-20,-44
734,-19,-43
735,-21,-47
736,-19,-49
737,-21,-46
738,-19,-46
739,-25,-44
740,-24,-47
741,-20,-47
742,-13,-41
743,-13,-32
744,-12,-26
745,-8,-17
746,-12,-18
747,-18,-15
748,-23,-25
749,-31,-35
750,-28,-44
751,-28,-47
752,-26,-50
753,-26,-54
754,-26,-60
755,-28,-62
756,-27,-59
757,-26,-55
758,-26,-60
759,-25,-64
760,-25,-64
761,-26,-63
762,-25,-59
763,-22,-58
764,-26,-65
765,-21,-83
766,5,-83
767,48,-20
768,47,110
769,15,88
770,-41,20
771,-64,-57
772,-41,-153
773,-32,-96
774,-29,-63
775,-32,-64
776,-31,-61
777,-32,-62
778,-27,-65
779,-30,-63
780,-28,-65
781,-30,-60
782,-31,-64
783,-33,-60
784,-29,-65
785,-32,-61
786,-32,-58
787,-32,-58
788,-30,-56
789,-31,-54
790,-27,-55
791,-31,-49
792,-26,-47
793,-30,-43
794,-28,-41
795,-28,-39
796,-25,-36
797,-27,-31
798,-29,-30
799,-26,-22
800,-26,-19
801,-25,-14
802,-24,-14
803,-21,-13
804,-21,-16
805,-20,-18
806,-19,-21
807,-19,-27
808,-19,-32
809,-19,-36
810,-18,-43
811,-17,-44
812,-21,-46
813,-23,-54
814,-20,-54
815,-21,-50
816,-17,-48
817,-19,-52
818,-19,-49
819,-20,-50
820,-18,-52
821,-20,-50
822,-20,-45
823,-19,-48
824,-18,-47
825,-18,-45
826,-19,-42
827,-17,-42
828,-17,-41
829,-22,-45
830,-19,-47
831,-21,-43
832,-19,-44
833,-19,-43
834,-19,-44
835,-14,-43
836,-12,-40
837,-7,-33
838,-8,-21
839,-6,-16
840,-9,-16
841,-14,-16
842,-19,-24
843,-23,-30
844,-25,-43
845,-21,-48
846,-19,-51
847,-20,-53
848,-20,-56
849,-20,-58
850,-16,-57
851,-21,-59
852,-19,-54
853,-21,-61
854,-16,-58
855,-17,-59
856,-16,-59
857,-16,-57
858,-19,-61
859,-9,-82
860,11,-73
861,49,-9
862,56,134
863,14,123
864,-40,22
865,-52,-63
866,-33,-153
867,-25,-122
868,-22,-66
869,-22,-59
870,-23,-60
871,-25,-55
872,-21,-58
873,-22,-55
874,-18,-52
875,-18,-55
876,-22,-56
877,-21,-56
878,-20,-55
879,-18,-52
880,-21,-52
881,-21,-52
882,-20,-52
883,-18,-48
884,-19,-46
885,-19,-46
886,-19,-41
887,-20,-38
888,-20,-33
889,-19,-31
890,-19,-31
891,-21,-26
892,-21,-25
893,-20,-22
894,-21,-16
895,-16,-14
896,-19,-15
897,-13,-16
898,-12,-15
899,-8,-16
900,-8,-16
901,-11,-23
902,-12,-30
903,-12,-35
904,-12,-39
905,-14,-45
906,-14,-45
907,-16,-47
908,-17,-47
909,-15,-47
910,-17,-48
911,-15,-48
912,-12,-50
913,-18,-50
914,-12,-45
915,-16,-45
916,-11,-45
917,-13,-43
918,-16,-43
919,-14,-41
920,-12,-41
921,-12,-37
922,-15,-37
923,-14,-38
924,-10,-42
925,-9,-42
926,-15,-42
927,-15,-42
928,-14,-43
929,-11,-40
930,-9,-41
931,-2,-32
932,-2,-25
933,0,-18
934,-1,-19
935,-4,-16
936,-12,-19
937,-18,-28
938,-20,-40
939,-14,-47
940,-16,-43
941,-15,-54
942,-17,-60
943,-16,-60
944,-16,-57
945,-17,-59
946,-16,-58
947,-16,-60
948,-17,-60
949,-15,-61
950,-14,-60
951,-14,-60
952,-15,-63
953,-15,-67
954,-3,-85
955,25,-71
956,67,13
957,45,137
958,-17,73
959,-60,16
960,-49,-108
961,-20,-140
962,-16,-76
963,-15,-60
964,-16,-56
965,-14,-56
966,-14,-57
967,-10,-55
968,-13,-53
969,-14,-51
970,-13,-53
971,-12,-51
972,-13,-51
973,-11,-50
974,-11,-49
975,-10,-47
976,-10,-49
977,-7,-45
978,-11,-43
979,-9,-43
980,-3,-37
981,-6,-33
982,-7,-32
983,-7,-27
984,-6,-24
985,-10,-18
986,-10,-15
987,-9,-13
988,-8,-10
989,-9,-6
990,-8,-3
991,-5,-4
992,-4,-4
993,0,-8
994,-1,-7
995,-1,-12
996,-4,-20
997,-4,-25
998,-4,-31
999,-3,-33
1000,-5,-36
1001,-2,-38
1002,-3,-37
1003,-4,-41
1004,-4,-42
1005,-7,-40
1006,-3,-40
1007,-5,-42
1008,-4,-37
1009,-4,-39
1010,-5,-40
1011,-2,-38
1012,-3,-38
1013,-4,-37
1014,-4,-35
1015,-6,-36
1016,-4,-34
1017,-2,-32
1018,-9,-31
1019,-5,-32
1020,-5,-33
1021,-7,-34
1022,-5,-34
1023,-10,-33
1024,-7,-31
1025,0,-31
1026,2,-20
1027,6,-9
1028,4,-11
1029,1,-10
1030,-5,-11
1031,-12,-19
1032,-16,-29
1033,-14,-38
1034,-11,-40
1035,-15,-45
1036,-13,-49
1037,-13,-53
1038,-11,-53
1039,-13,-52
1040,-11,-52
1041,-14,-53
1042,-14,-55
1043,-13,-56
1044,-13,-55
1045,-12,-53
1046,-13,-55
1047,-13,-58
1048,-8,-78
1049,21,-74
1050,69,-15
1051,52,109
1052,-2,89
1053,-47,46
1054,-61,-48
1055,-27,-128
1056,-13,-78
1057,-18,-58
1058,-15,-53
1059,-15,-53
1060,-14,-59
1061,-14,-55
1062,-15,-54
1063,-16,-57
1064,-14,-54
1065,-15,-55
1066,-13,-55
1067,-12,-55
1068,-19,-53
1069,-12,-54
1070,-17,-50
1071,-15,-48
1072,-15,-49
1073,-15,-44
1074,-11,-44
1075,-12,-40
1076,-12,-34
1077,-8,-32
1078,-10,-30
1079,-10,-29
1080,-10,-22
1081,-11,-19
1082,-9,-16
1083,-11,-10
1084,-6,-11
1085,-5,-9
1086,-5,-8
1087,-2,-14
1088,-1,-15
1089,0,-17
1090,-2,-19
1091,-3,-25
1092,-1,-31
1093,-6,-35
1094,-3,-35
1095,-1,-37
1096,-5,-36
1097,-2,-40
1098,-4,-39
1099,0,-40
1100,-2,-43
1101,-1,-40
1102,0,-38
1103,-3,-40
1104,0,-40
1105,-2,-35
1106,0,-34
1107,0,-37
1108,1,-34
1109,-1,-35
1110,0,-35
1111,-1,-31
1112,1,-32
1113,0,-34
1114,0,-34
1115,0,-34
1116,0,-33
1117,-2,-32
1118,-2,-34
1119,-2,-33
1120,1,-30
1121,2,-25
1122,6,-20
1123,8,-13
1124,8,-8
1125,7,-5
1126,0,-11
1127,-8,-17
1128,-9,-27
1129,-6,-34
1130,-5,-33
1131,-4,-38
1132,-5,-41
1133,-5,-45
1134,-4,-48
1135,-6,-49
1136,-4,-49
1137,-3,-46
1138,-5,-49
1139,-3,-52
1140,-3,-51
1141,-2,-51
1142,-2,-52
1143,-6,-64
1144,7,-76
1145,40,-58
1146,87,25
1147,86,140
1148,20,133
1149,-45,31
1150,-34,-106
1151,-9,-119
1152,-6,-55
1153,-8,-53
1154,-9,-50
1155,-7,-56
1156,-10,-52
1157,-11,-53
1158,-12,-52
1159,-9,-52
1160,-10,-51
1161,-9,-50
1162,-11,-50
1163,-9,-51
1164,-11,-48
1165,-12,-46
1166,-9,-46
1167,-11,-44
1168,-13,-42
1169,-9,-43
1170,-10,-39
1171,-10,-35
1172,-10,-32
1173,-11,-30
1174,-11,-25
1175,-11,-22
1176,-12,-19
1177,-9,-15
1178,-11,-11
1179,-12,-11
1180,-11,-8
1181,-8,-6
1182,-6,-6
1183,-2,-5
1184,-3,-11
1185,-2,-14
1186,-2,-21
1187,-4,-27
1188,-6,-33
1189,-4,-35
1190,-9,-40
1191,-6,-41
1192,-11,-41
1193,-10,-42
1194,-8,-45
1195,-10,-41
1196,-9,-38
1197,-4,-40
1198,-6,-38
1199,-5,-41
1200,-7,-36
1201,-7,-41
1202,-8,-35
1203,-8,-38
1204,-10,-37
1205,-10,-34
1206,-6,-28
1207,-7,-32
1208,-11,-30
1209,-11,-36
1210,-10,-36
1211,-11,-34
1212,-11,-38
1213,-14,-40
1214,-10,-39
1215,-12,-37
1216,-8,-34
1217,0,-28
1218,-1,-14
1219,-1,-12
1220,-4,-8
1221,-11,-12
1222,-19,-19
1223,-27,-34
1224,-23,-39
1225,-17,-41
1226,-17,-45
1227,-17,-42
1228,-15,-45
1229,-17,-50
1230,-19,-50
1231,-18,-50
1232,-17,-57
1233,-15,-53
1234,-17,-47
1235,-15,-53
1236,-16,-52
1237,-17,-49
1238,-18,-64
1239,-5,-77
1240,9,-62
1241,42,-17
1242,58,114
1243,12,123
1244,-44,20
1245,-40,-115
1246,-25,-139
1247,-22,-76
1248,-23,-55
1249,-25,-50
1250,-25,-51
1251,-24,-49
1252,-25,-52
1253,-25,-54
1254,-24,-50
1255,-24,-50
1256,-25,-47
1257,-22,-46
1258,-23,-45
1259,-24,-47
1260,-23,-46
1261,-24,-47
1262,-22,-42
1263,-21,-39
1264,-22,-37
1265,-24,-35
1266,-25,-34
1267,-23,-32
1268,-22,-28
1269,-21,-25
1270,-23,-22
1271,-24,-19
1272,-22,-17
1273,-26,-12
1274,-24,-10
1275,-24,-9
1276,-23,-6
1277,-20,-10
1278,-19,-9
1279,-15,-6
