,0,1
0,-29,-26
1,-49,-23
2,-36,-25
3,-37,-24
4,-32,-20
5,-37,-14
6,-31,-21
7,-38,-18
8,-39,-23
9,-46,-19
10,-42,-32
11,-40,-26
12,-49,-39
13,-35,-28
14,-41,-40
15,-38,-34
16,-49,-47
17,-38,-38
18,-48,-48
19,-31,-41
20,-50,-49
21,-36,-43
22,-54,-46
23,-31,-38
24,-35,-37
25,-18,-29
26,-21,-19
27,-8,-15
28,-2,-3
29,-2,-20
30,-22,-23
31,-27,-57
32,-33,-61
33,-39,-68
34,-58,-65
35,-67,-66
36,-68,-65
37,-65,-77
38,-65,-70
39,-60,-84
40,-53,-70
41,-66,-78
42,-56,-69
43,-87,-56
44,-46,37
45,42,23
46,211,118
47,276,-135
48,68,-333
49,-127,-446
50,-152,-508
51,-108,-403
52,-50,-210
53,-68,-76
54,-61,-48
55,-62,-36
56,-54,-40
57,-59,-30
58,-51,-39
59,-45,-24
60,-51,-32
61,-47,-18
62,-48,-31
63,-46,-13
64,-51,-11
65,-31,6
66,-32,-1
67,-22,17
68,-28,16
69,-8,32
70,-15,42
71,-1,64
72,-5,70
73,11,83
74,11,97
75,18,95
76,16,101
77,18,98
78,3,101
79,-5,85
80,-12,87
81,-27,56
82,-26,55
83,-49,14
84,-45,9
85,-63,-12
86,-54,-12
87,-62,-38
88,-56,-27
89,-60,-48
90,-42,-38
91,-57,-42
92,-44,-39
93,-55,-41
94,-45,-40
95,-57,-38
96,-49,-40
97,-49,-34
98,-45,-37
99,-49,-29
100,-45,-35
101,-52,-28
102,-46,-35
103,-51,-27
104,-44,-37
105,-45,-23
106,-44,-32
107,-37,-24
108,-47,-42
109,-43,-28
110,-56,-44
111,-45,-32
112,-56,-35
113,-47,-33
114,-57,-43
115,-44,-40
116,-57,-44
117,-43,-37
118,-51,-40
119,-27,-39
120,-30,-27
121,-25,-18
122,-22,0
123,-11,1
124,-3,8
125,-16,-22
126,-25,-26
127,-51,-65
128,-36,-51
129,-59,-59
130,-60,-58
131,-77,-60
132,-69,-59
133,-71,-71
134,-55,-70
135,-63,-65
136,-58,-70
137,-62,-60
138,-62,-61
139,-86,-17
140,-39,44
141,74,65
142,216,99
143,270,-171
144,41,-357
145,-133,-452
146,-170,-511
147,-92,-384
148,-59,-200
149,-58,-51
150,-73,-31
151,-48,-24
152,-66,-21
153,-52,-14
154,-59,-18
155,-52,-15
156,-52,-7
157,-45,-13
158,-43,-3
159,-41,-2
160,-42,8
161,-41,8
162,-31,23
163,-38,21
164,-18,38
165,-20,42
166,-8,63
167,-13,67
168,3,88
169,0,97
170,19,103
171,11,119
172,19,121
173,10,127
174,9,117
175,-3,124
176,-7,111
177,-13,111
178,-19,86
179,-17,86
180,-42,69
181,-36,56
182,-52,29
183,-44,23
184,-57,1
185,-44,-11
186,-56,-14
187,-40,-25
188,-56,-30
189,-57,-41
190,-66,-54
191,-62,-65
192,-66,-52
193,-68,-70
194,-59,-51
195,-64,-67
196,-56,-50
197,-64,-63
198,-54,-34
199,-58,2
200,-33,20
201,31,-21
202,116,-45
203,2,27
204,-95,183
205,-184,273
206,-156,256
207,-138,346
208,-125,494
209,-116,458
210,-89,303
211,-70,46
212,-34,-132
213,-15,-91
214,-19,-81
215,-15,-74
216,-28,-86
217,-27,-78
218,-24,-102
219,-15,-113
220,-22,-121
221,-4,-125
222,-3,-142
223,20,-141
224,13,-158
225,27,-161
226,20,-184
227,25,-197
228,26,-213
229,41,-229
230,39,-237
231,37,-249
232,22,-252
233,19,-258
234,-2,-247
235,-11,-235
236,-23,-216
237,-28,-198
238,-42,-158
239,-44,-137
240,-46,-93
241,-44,-69
242,-37,-31
243,-39,-9
244,14,112
245,106,191
246,190,181
247,134,240
248,-64,293
249,-146,289
250,-122,334
251,-142,425
252,-148,355
253,-194,206
254,-166,131
255,-134,2
256,-41,-117
257,-6,-132
258,-19,-119
259,-25,-112
260,-36,-131
261,-33,-128
262,-38,-137
263,-28,-132
264,-35,-144
265,-13,-136
266,-23,-141
267,-3,-136
268,-3,-139
269,15,-127
270,3,-122
271,13,-122
272,17,-130
273,25,-140
274,32,-145
275,36,-134
276,32,-124
277,36,-132
278,33,-124
279,17,-119
280,8,-94
281,-15,-96
282,-25,-75
283,-40,-68
284,-42,-50
285,-53,-45
286,-50,-28
287,-53,-39
288,-50,-28
289,-56,-34
290,-46,-25
291,-53,-35
292,-32,-19
293,-51,-16
294,-40,-13
295,-57,-7
296,-48,-8
297,-59,-11
298,-46,-14
299,-60,-26
300,-58,-29
301,-90,3
302,9,67
303,163,188
304,309,-67
305,247,-387
306,-51,-601
307,-163,-668
308,-111,-481
309,-66,-177
310,-89,-76
311,-86,-48
312,-86,-39
313,-71,-30
314,-75,-35
315,-58,-21
316,-68,-12
317,-54,1
318,-73,4
319,-62,25
320,-64,38
321,-46,62
322,-57,64
323,-54,64
324,-63,75
325,-51,83
326,-50,103
327,-42,109
328,-48,124
329,-47,124
330,-46,136
331,-53,129
332,-47,133
333,-45,128
334,-30,134
335,-34,119
336,-24,109
337,-35,72
338,-26,57
339,-46,29
340,-30,17
341,-54,3
342,-45,4
343,-50,2
344,-45,6
345,-66,-6
346,-48,-8
347,-62,-9
348,-50,-15
349,-53,-15
350,-46,-23
351,-59,-28
352,-59,-39
353,-66,-36
354,-61,-45
355,-67,-44
356,-68,-54
357,-65,-47
358,-62,-60
359,-71,-35
360,-78,12
361,41,93
362,199,208
363,317,12
364,119,-303
365,-128,-483
366,-156,-584
367,-86,-374
368,-61,-142
369,-71,-27
370,-86,-24
371,-69,-19
372,-75,-22
373,-61,-18
374,-78,-17
375,-64,-25
376,-64,-15
377,-57,-28
378,-60,-12
379,-64,-21
380,-59,-6
381,-67,-8
382,-56,16
383,-67,12
384,-52,33
385,-49,35
386,-33,66
387,-32,69
388,-22,95
389,-33,95
390,-18,103
391,-23,97
392,-6,119
393,-19,113
394,-4,95
395,-10,90
396,-13,67
397,-21,59
398,-28,40
399,-36,27
400,-50,-1
401,-56,-13
402,-63,-35
403,-53,-30
404,-51,-46
405,-51,-34
406,-61,-48
407,-56,-36
408,-68,-57
409,-58,-43
410,-73,-54
411,-62,-43
412,-75,-55
413,-63,-52
414,-68,-59
415,-63,-58
416,-71,-62
417,-66,-65
418,-73,-57
419,-67,-64
420,-75,-60
421,-66,-68
422,-65,-65
423,-77,-71
424,-70,-60
425,-81,-90
426,-88,-87
427,-92,-103
428,-77,-103
429,-84,-110
430,-57,-72
431,-68,-51
432,-57,-21
433,-72,-32
434,-71,-39
435,-79,-54
436,-68,-55
437,-77,-61
438,-69,-69
439,-74,-60
440,-69,-65
441,-67,-48
442,-100,-29
443,-52,54
444,54,55
445,222,148
446,256,-129
447,16,-298
448,-174,-431
449,-181,-523
450,-115,-384
451,-55,-186
452,-75,-52
453,-74,-31
454,-77,-18
455,-75,-17
456,-77,-12
457,-68,-19
458,-69,-9
459,-73,-11
460,-64,-3
461,-67,-3
462,-52,7
463,-64,4
464,-56,19
465,-67,13
466,-55,32
467,-63,38
468,-47,49
469,-52,55
470,-38,66
471,-47,79
472,-39,79
473,-47,93
474,-38,94
475,-36,103
476,-35,96
477,-25,118
478,-26,113
479,-6,119
480,-26,115
481,-29,118
482,-44,78
483,-39,58
484,-61,43
485,-52,23
486,-67,3
487,-48,-1
488,-58,-15
489,-53,-23
490,-68,-30
491,-72,-46
492,-76,-44
493,-62,-54
494,-66,-44
495,-66,-49
496,-59,-35
497,-62,-54
498,-62,-41
499,-70,-50
500,-78,-18
501,-84,28
502,16,31
503,177,85
504,247,-73
505,14,-349
506,-175,-513
507,-204,-595
508,-86,-396
509,-61,-168
510,-67,-47
511,-84,-38
512,-73,-41
513,-75,-34
514,-71,-37
515,-69,-23
516,-65,-28
517,-67,-15
518,-63,-19
519,-57,0
520,-56,-5
521,-47,9
522,-52,9
523,-38,26
524,-49,25
525,-36,42
526,-46,47
527,-30,53
528,-40,61
529,-28,66
530,-36,68
531,-26,61
532,-30,62
533,-20,59
534,-26,63
535,-32,54
536,-37,54
537,-53,25
538,-57,21
539,-66,-1
540,-58,1
541,-68,-17
542,-60,-13
543,-69,-26
544,-59,-18
545,-66,-23
546,-60,-15
547,-63,-23
548,-54,-19
549,-65,-20
550,-58,-18
551,-72,-21
552,-59,-24
553,-72,-27
554,-66,-27
555,-80,-31
556,-64,-35
557,-72,-34
558,-65,-40
559,-73,-34
560,-72,-42
561,-70,-40
562,-71,-49
563,-70,-39
564,-74,-49
565,-70,-42
566,-79,-51
567,-70,-42
568,-78,-48
569,-67,-43
570,-76,-48
571,-65,-43
572,-77,-47
573,-67,-39
574,-77,-50
575,-67,-49
576,-74,-44
577,-73,-53
578,-73,-43
579,-71,-49
580,-67,-41
581,-73,-52
582,-70,-45
583,-74,-49
584,-70,-39
585,-78,-58
586,-71,-39
587,-79,-47
588,-74,-40
589,-83,-48
590,-71,-36
591,-82,-44
592,-71,-41
593,-85,-44
594,-72,-47
595,-80,-44
596,-69,-38
597,-74,-43
598,-68,-40
599,-68,-37
600,-56,-33
601,-52,-18
602,-41,-4
603,-36,12
604,-27,4
605,-37,-4
606,-57,-39
607,-59,-49
608,-68,-56
609,-65,-51
610,-90,-58
611,-86,-45
612,-100,-57
613,-86,-51
614,-93,-62
615,-82,-58
616,-91,-55
617,-76,-46
618,-102,-38
619,-73,50
620,3,54
621,159,120
622,248,-108
623,98,-329
624,-116,-447
625,-186,-529
626,-121,-430
627,-72,-226
628,-73,-67
629,-84,-26
630,-78,-17
631,-82,-16
632,-68,-5
633,-75,-8
634,-64,1
635,-73,-8
636,-64,6
637,-69,2
638,-52,8
639,-68,11
640,-48,23
641,-56,29
642,-45,33
643,-47,48
644,-38,54
645,-35,71
646,-33,73
647,-25,95
648,-26,94
649,-15,122
650,-9,118
651,0,130
652,-8,122
653,0,127
654,-4,132
655,8,131
656,-4,117
657,-4,123
658,-21,105
659,-23,98
660,-32,79
661,-26,77
662,-33,68
663,-32,69
664,-53,66
665,-50,33
666,-47,26
667,-48,16
668,-51,16
669,-54,-1
670,-45,-3
671,-46,-17
672,-45,-9
673,-58,-29
674,-58,-28
675,-78,-42
676,-62,-39
677,-70,-46
678,-54,-41
679,-60,-45
680,-55,-50
681,-73,-50
682,-67,-41
683,-88,0
684,-58,14
685,76,-1
686,248,112
687,222,45
688,-32,-170
689,-206,-348
690,-197,-452
691,-121,-362
692,-69,-173
693,-70,-37
694,-80,-45
695,-70,-43
696,-74,-44
697,-64,-30
698,-81,-34
699,-67,-22
700,-82,-17
701,-69,-19
702,-73,-18
703,-59,-19
704,-53,-10
705,-47,-9
706,-51,-8
707,-50,-14
708,-46,-5
709,-41,-5
710,-36,4
711,-44,-8
712,-38,-3
713,-42,-23
714,-33,-7
715,-44,-17
716,-33,-4
717,-47,-4
718,-39,2
719,-63,2
720,-57,6
721,-75,0
722,-68,-5
723,-74,-10
724,-70,-19
725,-84,-22
726,-75,-12
727,-73,-13
728,-71,-24
729,-70,-12
730,-71,-26
731,-57,-15
732,-69,-30
733,-56,-28
734,-66,-36
735,-62,-24
736,-80,-37
737,-71,-37
738,-86,-48
739,-73,-50
740,-81,-53
741,-72,-53
742,-90,-51
743,-78,-56
744,-80,-47
745,-71,-60
746,-72,-41
747,-75,-52
748,-70,-47
749,-89,-54
750,-78,-29
751,-80,-39
752,-64,-30
753,-80,-35
754,-68,-30
755,-72,-42
756,-57,-37
757,-61,-44
758,-54,-36
759,-62,-32
760,-60,-34
761,-59,-31
762,-64,-42
763,-68,-38
764,-79,-57
765,-70,-48
766,-76,-63
767,-66,-48
768,-73,-59
769,-59,-50
770,-81,-44
771,-81,29
772,-2,77
773,141,134
774,255,86
775,193,-191
776,-72,-320
777,-197,-457
778,-149,-481
779,-97,-308
780,-49,-123
781,-71,-29
782,-64,-7
783,-72,-15
784,-58,-1
785,-72,-3
786,-61,0
787,-77,-19
788,-59,-2
789,-66,-6
790,-60,-2
791,-61,7
792,-50,12
793,-52,23
794,-41,33
795,-44,47
796,-33,52
797,-31,79
798,-38,81
799,-30,113
800,-32,120
801,-12,141
802,-16,139
803,-4,147
804,-14,133
805,-8,146
806,-5,133
807,0,137
808,-9,114
809,-9,100
810,-39,70
811,-36,49
812,-64,22
813,-58,9
814,-67,-4
815,-56,-10
816,-64,-13
817,-60,-18
818,-64,-11
819,-58,-23
820,-58,-18
821,-65,-18
822,-69,-3
823,-72,-14
824,-57,5
825,-55,0
826,-48,6
827,-61,0
828,-55,1
829,-67,-8
830,-54,-2
831,-64,-8
832,-50,-7
833,-54,-4
834,-52,-23
835,-67,-26
836,-65,-37
837,-74,-42
838,-67,-47
839,-67,-41
840,-64,-48
841,-59,-35
842,-64,-44
843,-60,-27
844,-78,9
845,6,91
846,137,148
847,259,-13
848,167,-329
849,-108,-519
850,-185,-625
851,-94,-450
852,-53,-155
853,-69,-29
854,-89,-25
855,-76,-16
856,-84,-11
857,-73,-13
858,-77,-12
859,-71,-13
860,-69,-7
861,-65,-8
862,-66,0
863,-65,0
864,-64,14
865,-64,11
866,-53,35
867,-50,37
868,-37,61
869,-51,65
870,-45,88
871,-58,93
872,-41,117
873,-41,121
874,-28,133
875,-34,130
876,-15,138
877,-28,134
878,-13,133
879,-35,123
880,-26,104
881,-40,88
882,-36,56
883,-50,44
884,-51,9
885,-55,-3
886,-48,-11
887,-51,-10
888,-56,-21
889,-43,-15
890,-49,-16
891,-42,-1
892,-51,-8
893,-48,-1
894,-64,-9
895,-52,0
896,-92,12
897,-36,98
898,99,170
899,251,64
900,263,-330
901,-12,-575
902,-164,-660
903,-93,-484
904,-60,-173
905,-70,-48
906,-80,-14
907,-73,-10
908,-72,-9
909,-66,-12
910,-62,-2
911,-60,-7
912,-55,9
913,-55,-1
914,-46,17
915,-55,15
916,-43,37
917,-59,32
918,-51,41
919,-60,51
920,-37,66
921,-39,79
922,-27,94
923,-36,95
924,-29,108
925,-30,111
926,-19,114
927,-29,112
928,-22,104
929,-24,98
930,-20,87
931,-24,73
932,-29,52
933,-31,40
934,-38,15
935,-37,16
936,-41,-5
937,-43,5
938,-44,-6
939,-42,3
940,-54,-6
941,-57,0
942,-76,-15
943,-58,-7
944,-71,-10
945,-54,-8
946,-61,-16
947,-49,-25
948,-65,-23
949,-58,-27
950,-65,-30
951,-62,-38
952,-67,-40
953,-65,-47
954,-60,-38
955,-61,-41
956,-62,-41
957,-55,-63
958,-54,-45
959,-56,-59
960,-48,-43
961,-55,-51
962,-42,-36
963,-64,-50
964,-56,-40
965,-68,-52
966,-59,-47
967,-70,-40
968,-58,-31
969,-68,-28
970,-62,-33
971,-68,-30
972,-58,-44
973,-66,-32
974,-62,-38
975,-65,-28
976,-71,-48
977,-67,-42
978,-70,-52
979,-55,-42
980,-65,-45
981,-55,-38
982,-59,-53
983,-46,-41
984,-56,-54
985,-45,-41
986,-53,-54
987,-47,-46
988,-65,-53
989,-57,-42
990,-69,-51
991,-52,-44
992,-66,-47
993,-56,-52
994,-64,-49
995,-60,-53
996,-60,-46
997,-60,-48
998,-59,-40
999,-57,-56
1000,-60,-48
1001,-67,-60
1002,-62,-51
1003,-61,-50
1004,-43,-36
1005,-54,-43
1006,-51,-29
1007,-76,-1
1008,3,78
1009,111,86
1010,257,123
1011,239,-144
1012,3,-300
1013,-163,-430
1014,-155,-501
1015,-107,-334
1016,-47,-154
1017,-60,-36
1018,-65,-24
1019,-65,-20
1020,-68,-29
1021,-64,-9
1022,-67,-18
1023,-56,-7
1024,-52,-11
1025,-41,2
1026,-51,-4
1027,-33,11
1028,-44,7
1029,-23,19
1030,-29,25
1031,-20,28
1032,-30,35
1033,-19,46
1034,-25,53
1035,-26,58
1036,-31,76
1037,-24,74
1038,-16,91
1039,-9,87
1040,-4,94
1041,2,87
1042,14,103
1043,3,86
1044,22,104
1045,0,91
1046,8,98
1047,-14,79
1048,-9,80
1049,-30,52
1050,-21,48
1051,-37,29
1052,-29,22
1053,-45,8
1054,-34,-1
1055,-43,-7
1056,-36,-14
1057,-48,-16
1058,-49,-33
1059,-55,-23
1060,-52,-26
1061,-45,-13
1062,-52,-17
1063,-37,-8
1064,-48,-16
1065,-38,-8
1066,-55,-24
1067,-37,-23
1068,-53,0
1069,-21,33
1070,6,2
1071,53,0
1072,95,14
1073,-30,92
1074,-126,242
1075,-153,335
1076,-147,328
1077,-121,335
1078,-73,570
1079,-76,622
1080,-63,478
1081,-50,152
1082,-30,-121
1083,-32,-121
1084,-39,-110
1085,-50,-126
1086,-26,-123
1087,-40,-139
1088,-35,-142
1089,-39,-161
1090,-32,-172
1091,-43,-182
1092,-32,-189
1093,-25,-193
1094,-19,-210
1095,-12,-218
1096,-13,-235
1097,-3,-232
1098,4,-252
1099,19,-254
1100,18,-274
1101,22,-276
1102,13,-292
1103,10,-278
1104,-9,-277
1105,-10,-257
1106,-46,-251
1107,-43,-222
1108,-61,-194
1109,-59,-159
1110,-77,-131
1111,-64,-110
1112,-66,-83
1113,-57,-74
1114,-67,-54
1115,-66,-56
1116,-70,-46
1117,-67,-54
1118,-70,-47
1119,-68,-51
1120,-64,-48
1121,-62,-56
1122,-60,-48
1123,-62,-54
1124,-59,-47
1125,-62,-55
1126,-55,-46
1127,-63,-50
1128,-63,-33
1129,-77,-45
1130,-79,-27
1131,-104,14
1132,20,74
1133,177,197
1134,299,-95
1135,104,-396
1136,-135,-563
1137,-176,-605
1138,-97,-343
1139,-73,-112
1140,-76,-27
1141,-86,-10
1142,-84,-18
1143,-89,-21
1144,-78,-20
1145,-69,-10
1146,-62,-13
1147,-57,-1
1148,-58,0
1149,-48,18
1150,-54,15
1151,-44,39
1152,-63,37
1153,-53,60
1154,-65,62
1155,-49,92
1156,-52,99
1157,-41,126
1158,-55,128
1159,-36,152
1160,-46,156
1161,-35,164
1162,-36,177
1163,-25,171
1164,-24,175
1165,-15,156
1166,-23,145
1167,-21,103
1168,-27,84
1169,-31,48
1170,-30,36
1171,-39,10
1172,-26,5
1173,-39,-2
1174,-30,-4
1175,-51,-16
1176,-45,-9
1177,-66,-19
1178,-47,-14
1179,-60,-17
1180,-49,-6
1181,-69,-11
1182,-58,-16
1183,-69,-23
1184,-60,-26
1185,-69,-30
1186,-61,-34
1187,-71,-35
1188,-64,-42
1189,-77,-30
1190,-99,-16
1191,-50,46
1192,96,85
1193,254,143
1194,250,-219
1195,-28,-436
1196,-173,-600
1197,-108,-525
1198,-54,-242
1199,-54,-59
1200,-86,-37
1201,-82,-26
1202,-79,-29
1203,-70,-20
1204,-72,-21
1205,-65,-14
1206,-67,-17
1207,-52,-7
1208,-63,-7
1209,-51,2
1210,-60,4
1211,-56,5
1212,-63,12
1213,-57,7
1214,-64,19
1215,-69,19
1216,-63,42
1217,-56,39
1218,-51,50
1219,-56,41
1220,-53,54
1221,-43,48
1222,-24,72
1223,-26,65
1224,-9,79
1225,-28,74
1226,-24,66
1227,-55,40
1228,-50,28
1229,-55,20
1230,-50,7
1231,-60,-3
1232,-55,-15
1233,-58,-17
1234,-62,-22
1235,-68,-24
1236,-56,-29
1237,-68,-26
1238,-67,-37
1239,-71,-32
1240,-70,-42
1241,-70,-32
1242,-74,-48
1243,-71,-44
1244,-81,-53
1245,-75,-38
1246,-79,-49
1247,-66,-37
1248,-70,-46
1249,-61,-42
1250,-68,-51
1251,-61,-38
1252,-79,-53
1253,-71,-42
1254,-75,-37
1255,-56,-29
1256,-77,-19
1257,-75,19
1258,-5,79
1259,152,113
1260,285,125
1261,208,-222
1262,-81,-435
1263,-196,-598
1264,-146,-536
1265,-76,-258
1266,-76,-76
1267,-84,-42
1268,-77,-25
1269,-70,-35
1270,-66,-18
1271,-67,-21
1272,-56,-8
1273,-62,-18
1274,-54,0
1275,-72,-7
1276,-54,-1
1277,-71,5
1278,-63,20
1279,-67,22
