,0,1
0,27,-87
1,28,-91
2,28,-92
3,34,-85
4,31,-80
5,29,-88
6,35,-87
7,36,-88
8,33,-88
9,34,-85
10,34,-88
11,36,-84
12,35,-84
13,35,-83
14,39,-88
15,37,-81
16,35,-85
17,37,-80
18,38,-78
19,38,-79
20,37,-80
21,42,-79
22,42,-81
23,37,-80
24,35,-73
25,29,-65
26,30,-58
27,36,-52
28,43,-53
29,37,-50
30,41,-54
31,37,-54
32,37,-58
33,31,-75
34,37,-79
35,39,-84
36,36,-83
37,36,-82
38,30,-85
39,30,-82
40,28,-79
41,33,-80
42,30,-99
43,32,-22
44,35,170
45,16,275
46,-45,141
47,-116,-95
48,-145,-206
49,-72,-165
50,77,-109
51,98,-82
52,55,-78
53,36,-69
54,39,-66
55,42,-59
56,42,-51
57,41,-52
58,48,-57
59,44,-54
60,48,-53
61,49,-47
62,51,-45
63,51,-32
64,45,-35
65,46,-40
66,54,-41
67,53,-38
68,49,-32
69,47,-28
70,52,-32
71,48,-28
72,50,-26
73,45,-29
74,48,-30
75,44,-30
76,47,-29
77,43,-32
78,36,-36
79,25,-53
80,24,-57
81,19,-65
82,11,-68
83,7,-64
84,0,-70
85,-2,-68
86,-6,-62
87,-10,-67
88,-13,-65
89,-15,-60
90,-17,-63
91,-11,-65
92,-7,-62
93,1,-62
94,5,-63
95,5,-64
96,14,-65
97,18,-63
98,21,-65
99,18,-66
100,23,-75
101,19,-69
102,23,-67
103,13,-68
104,16,-67
105,17,-68
106,18,-69
107,19,-72
108,19,-85
109,18,-78
110,17,-80
111,11,-80
112,17,-80
113,19,-75
114,24,-76
115,22,-83
116,20,-82
117,23,-86
118,19,-84
119,19,-85
120,21,-82
121,20,-85
122,19,-83
123,23,-85
124,16,-85
125,17,-85
126,19,-82
127,19,-75
128,28,-78
129,26,-84
130,21,-90
131,25,-80
132,18,-80
133,21,-81
134,25,-81
135,26,-80
136,24,-85
137,24,-88
138,21,-85
139,22,-83
140,23,-81
141,27,-70
142,24,-64
143,30,-55
144,36,-55
145,32,-54
146,29,-60
147,26,-55
148,33,-53
149,21,-73
150,26,-75
151,29,-88
152,33,-87
153,28,-82
154,24,-84
155,22,-81
156,20,-81
157,16,-84
158,19,-101
159,15,-90
160,19,30
161,13,178
162,-36,174
163,-121,21
164,-191,-140
165,-170,-214
166,-1,-174
167,134,-122
168,105,-81
169,45,-67
170,25,-57
171,30,-55
172,34,-57
173,35,-55
174,35,-54
175,33,-50
176,39,-44
177,35,-43
178,40,-44
179,42,-42
180,44,-43
181,44,-42
182,43,-37
183,44,-29
184,45,-29
185,41,-27
186,45,-34
187,42,-34
188,43,-30
189,39,-30
190,39,-29
191,37,-27
192,33,-33
193,31,-39
194,27,-48
195,23,-52
196,16,-54
197,11,-63
198,3,-61
199,3,-66
200,-4,-73
201,-11,-74
202,-13,-77
203,-10,-72
204,-18,-66
205,-20,-67
206,-17,-60
207,-22,-63
208,-12,-61
209,-3,-67
210,-6,-65
211,0,-69
212,4,-68
213,2,-74
214,8,-68
215,8,-67
216,8,-73
217,15,-74
218,12,-73
219,9,-70
220,14,-75
221,10,-69
222,13,-70
223,12,-75
224,12,-80
225,11,-79
226,16,-78
227,16,-77
228,8,-81
229,17,-81
230,17,-87
231,17,-88
232,20,-85
233,14,-89
234,18,-87
235,17,-84
236,12,-85
237,24,-83
238,19,-90
239,18,-91
240,17,-84
241,17,-89
242,16,-83
243,20,-84
244,19,-87
245,20,-85
246,18,-87
247,21,-90
248,20,-87
249,19,-89
250,19,-86
251,15,-84
252,20,-89
253,20,-87
254,26,-89
255,25,-87
256,17,-84
257,21,-82
258,20,-85
259,27,-82
260,20,-80
261,23,-71
262,23,-62
263,29,-56
264,29,-53
265,26,-54
266,28,-58
267,32,-58
268,31,-72
269,21,-83
270,30,-85
271,33,-85
272,34,-85
273,29,-88
274,33,-92
275,27,-86
276,30,-80
277,25,-86
278,25,-93
279,26,14
280,30,207
281,-1,281
282,-59,117
283,-117,-128
284,-149,-215
285,-57,-175
286,84,-111
287,78,-87
288,39,-80
289,30,-76
290,34,-74
291,36,-69
292,37,-65
293,40,-65
294,41,-60
295,43,-67
296,39,-60
297,36,-59
298,32,-55
299,48,-52
300,52,-50
301,41,-52
302,42,-52
303,43,-49
304,42,-52
305,37,-45
306,39,-45
307,42,-42
308,44,-41
309,44,-47
310,46,-46
311,40,-51
312,38,-51
313,32,-47
314,28,-54
315,25,-66
316,22,-74
317,15,-82
318,17,-83
319,12,-87
320,12,-80
321,7,-78
322,1,-70
323,0,-69
324,0,-76
325,-2,-68
326,-6,-65
327,-4,-63
328,0,-65
329,2,-62
330,6,-66
331,14,-68
332,17,-68
333,15,-65
334,16,-60
335,18,-63
336,14,-61
337,18,-58
338,20,-63
339,16,-60
340,13,-58
341,12,-59
342,12,-61
343,10,-57
344,15,-63
345,17,-64
346,18,-64
347,14,-63
348,17,-66
349,18,-63
350,18,-63
351,17,-67
352,23,-65
353,20,-70
354,24,-69
355,23,-61
356,22,-65
357,21,-66
358,23,-66
359,26,-73
360,30,-68
361,25,-71
362,26,-73
363,23,-72
364,15,-65
365,28,-66
366,27,-69
367,30,-71
368,23,-70
369,29,-72
370,25,-70
371,24,-62
372,25,-69
373,23,-67
374,24,-66
375,28,-67
376,21,-66
377,21,-66
378,21,-60
379,19,-58
380,28,-47
381,25,-39
382,41,-40
383,28,-45
384,30,-40
385,29,-41
386,25,-47
387,32,-69
388,36,-78
389,32,-75
390,31,-76
391,29,-73
392,27,-73
393,20,-72
394,25,-69
395,25,-80
396,28,-92
397,24,-6
398,28,150
399,-7,207
400,-87,90
401,-177,-84
402,-191,-192
403,-59,-164
404,137,-107
405,130,-62
406,69,-52
407,37,-48
408,37,-41
409,46,-46
410,48,-48
411,42,-37
412,43,-36
413,50,-35
414,45,-30
415,47,-29
416,54,-29
417,49,-28
418,51,-31
419,47,-23
420,51,-19
421,50,-18
422,54,-23
423,57,-21
424,55,-18
425,52,-16
426,45,-18
427,48,-15
428,49,-19
429,45,-15
430,48,-29
431,41,-29
432,33,-30
433,27,-28
434,26,-38
435,13,-50
436,8,-54
437,4,-59
438,-2,-58
439,-13,-59
440,-15,-52
441,-19,-51
442,-24,-51
443,-21,-51
444,-15,-51
445,-12,-57
446,-10,-55
447,-4,-54
448,-3,-53
449,-3,-58
450,9,-62
451,8,-63
452,14,-57
453,11,-64
454,14,-57
455,13,-58
456,8,-60
457,13,-61
458,7,-65
459,11,-66
460,5,-66
461,6,-63
462,8,-60
463,9,-64
464,13,-65
465,11,-69
466,11,-69
467,10,-67
468,9,-74
469,10,-64
470,5,-64
471,7,-69
472,13,-70
473,11,-75
474,14,-74
475,13,-67
476,14,-67
477,10,-65
478,11,-71
479,17,-72
480,20,-72
481,14,-70
482,15,-67
483,22,-64
484,15,-67
485,19,-69
486,18,-74
487,19,-76
488,19,-71
489,14,-66
490,12,-65
491,9,-66
492,17,-59
493,13,-56
494,15,-52
495,24,-45
496,18,-44
497,16,-40
498,19,-40
499,25,-47
500,23,-61
501,25,-77
502,20,-78
503,23,-80
504,22,-77
505,19,-78
506,14,-79
507,11,-81
508,9,-82
509,14,-90
510,15,-71
511,18,90
512,14,276
513,-32,250
514,-101,18
515,-144,-184
516,-128,-204
517,17,-146
518,96,-91
519,57,-70
520,24,-64
521,24,-59
522,28,-61
523,33,-56
524,35,-50
525,29,-46
526,33,-44
527,38,-47
528,37,-46
529,34,-46
530,39,-40
531,36,-37
532,39,-36
533,35,-33
534,38,-31
535,39,-40
536,39,-38
537,38,-37
538,41,-31
539,39,-35
540,37,-33
541,35,-33
542,34,-34
543,32,-43
544,28,-41
545,29,-42
546,19,-48
547,19,-54
548,17,-63
549,14,-68
550,3,-68
551,5,-64
552,0,-59
553,0,-52
554,-9,-48
555,-9,-47
556,-6,-52
557,-4,-47
558,-4,-47
559,-1,-43
560,2,-42
561,3,-41
562,10,-42
563,10,-41
564,12,-46
565,9,-39
566,11,-38
567,7,-37
568,11,-41
569,13,-35
570,13,-44
571,13,-39
572,15,-39
573,14,-39
574,13,-42
575,10,-39
576,12,-43
577,18,-50
578,19,-57
579,12,-53
580,10,-51
581,12,-54
582,15,-50
583,12,-51
584,15,-57
585,14,-61
586,18,-54
587,17,-57
588,8,-55
589,13,-53
590,15,-56
591,15,-57
592,12,-59
593,16,-63
594,15,-62
595,12,-59
596,15,-56
597,10,-59
598,17,-63
599,12,-61
600,11,-61
601,13,-56
602,8,-53
603,11,-56
604,11,-55
605,8,-58
606,14,-61
607,9,-59
608,11,-53
609,9,-39
610,13,-35
611,19,-31
612,19,-38
613,18,-36
614,17,-39
615,13,-33
616,10,-52
617,5,-59
618,14,-69
619,19,-73
620,19,-71
621,10,-67
622,13,-68
623,13,-64
624,6,-62
625,9,-73
626,5,-64
627,15,75
628,9,258
629,-33,267
630,-95,63
631,-153,-159
632,-154,-201
633,-24,-146
634,84,-88
635,53,-72
636,14,-65
637,17,-56
638,14,-54
639,25,-50
640,22,-49
641,27,-46
642,23,-47
643,22,-38
644,27,-42
645,27,-41
646,28,-40
647,34,-37
648,32,-40
649,36,-36
650,36,-34
651,33,-29
652,32,-28
653,36,-24
654,41,-28
655,37,-22
656,32,-28
657,32,-20
658,34,-21
659,29,-18
660,33,-21
661,32,-39
662,27,-39
663,23,-44
664,22,-48
665,12,-54
666,10,-53
667,9,-55
668,5,-57
669,4,-57
670,1,-47
671,-1,-44
672,-1,-42
673,-6,-42
674,-6,-38
675,4,-40
676,5,-40
677,8,-37
678,9,-35
679,12,-32
680,15,-41
681,17,-35
682,20,-35
683,25,-40
684,24,-34
685,16,-36
686,19,-28
687,20,-34
688,21,-28
689,23,-31
690,21,-37
691,15,-36
692,24,-37
693,19,-36
694,20,-38
695,23,-33
696,24,-41
697,20,-37
698,18,-36
699,18,-40
700,26,-38
701,18,-43
702,19,-39
703,20,-44
704,23,-54
705,19,-47
706,21,-45
707,22,-37
708,23,-42
709,23,-39
710,25,-50
711,27,-51
712,26,-54
713,22,-56
714,18,-48
715,16,-42
716,19,-44
717,18,-53
718,21,-54
719,19,-61
720,12,-54
721,15,-59
722,18,-54
723,7,-54
724,15,-52
725,17,-41
726,14,-32
727,21,-32
728,22,-34
729,15,-32
730,16,-36
731,19,-42
732,10,-54
733,14,-60
734,15,-69
735,21,-70
736,20,-69
737,16,-70
738,16,-70
739,12,-68
740,11,-68
741,8,-79
742,11,-67
743,7,52
744,12,196
745,-49,182
746,-136,28
747,-212,-133
748,-171,-200
749,16,-159
750,136,-101
751,106,-66
752,44,-54
753,26,-55
754,34,-48
755,26,-46
756,28,-45
757,29,-42
758,31,-38
759,36,-37
760,39,-38
761,37,-36
762,36,-35
763,34,-26
764,38,-24
765,42,-24
766,43,-22
767,43,-25
768,43,-24
769,39,-16
770,41,-19
771,39,-14
772,38,-14
773,40,-17
774,37,-19
775,34,-22
776,29,-27
777,26,-23
778,24,-28
779,20,-31
780,12,-35
781,9,-43
782,5,-51
783,0,-48
784,-8,-46
785,-12,-39
786,-19,-37
787,-18,-38
788,-15,-40
789,-14,-41
790,-11,-39
791,-8,-40
792,0,-40
793,4,-40
794,8,-40
795,13,-45
796,16,-50
797,16,-49
798,13,-41
799,19,-42
800,16,-44
801,17,-44
802,21,-49
803,23,-52
804,21,-53
805,18,-54
806,17,-54
807,16,-50
808,20,-55
809,23,-52
810,20,-56
811,23,-59
812,22,-59
813,23,-57
814,21,-55
815,15,-58
816,22,-56
817,24,-65
818,25,-65
819,20,-61
820,22,-56
821,19,-59
822,19,-60
823,22,-58
824,24,-65
825,22,-64
826,23,-65
827,18,-62
828,19,-65
829,20,-59
830,15,-65
831,23,-64
832,26,-67
833,19,-68
834,24,-64
835,19,-63
836,21,-63
837,25,-66
838,21,-66
839,26,-68
840,24,-58
841,15,-52
842,14,-41
843,26,-36
844,22,-40
845,24,-39
846,21,-43
847,24,-45
848,12,-55
849,15,-72
850,18,-77
851,22,-77
852,22,-80
853,15,-83
854,14,-75
855,11,-76
856,12,-75
857,15,-85
858,13,-74
859,10,70
860,14,252
861,-31,271
862,-88,66
863,-147,-157
864,-150,-204
865,-28,-149
866,78,-94
867,56,-84
868,18,-73
869,17,-65
870,18,-61
871,19,-59
872,18,-56
873,27,-57
874,27,-57
875,29,-58
876,26,-56
877,25,-58
878,26,-48
879,23,-54
880,27,-51
881,28,-51
882,29,-48
883,29,-47
884,26,-40
885,29,-41
886,27,-35
887,28,-37
888,30,-40
889,32,-40
890,28,-41
891,23,-44
892,22,-40
893,19,-45
894,21,-46
895,20,-59
896,18,-65
897,10,-67
898,6,-72
899,-1,-69
900,-5,-71
901,-1,-67
902,-6,-62
903,-8,-61
904,-11,-59
905,-12,-53
906,-10,-51
907,-7,-50
908,0,-55
909,6,-55
910,9,-55
911,12,-51
912,12,-53
913,18,-51
914,19,-44
915,16,-42
916,20,-49
917,17,-52
918,20,-49
919,20,-48
920,23,-47
921,16,-41
922,20,-49
923,15,-49
924,17,-50
925,21,-56
926,16,-53
927,18,-56
928,19,-49
929,16,-56
930,20,-54
931,25,-62
932,22,-64
933,21,-59
934,18,-63
935,19,-59
936,19,-61
937,23,-61
938,21,-65
939,31,-67
940,19,-68
941,23,-68
942,22,-60
943,21,-61
944,21,-64
945,25,-66
946,21,-68
947,20,-69
948,24,-65
949,21,-66
950,15,-67
951,22,-70
952,25,-73
953,26,-74
954,20,-70
955,23,-69
956,23,-61
957,19,-57
958,16,-43
959,26,-41
960,27,-46
961,29,-44
962,19,-41
963,21,-39
964,23,-55
965,17,-69
966,25,-80
967,30,-80
968,24,-79
969,21,-82
970,21,-76
971,20,-81
972,20,-77
973,19,-89
974,16,-81
975,12,54
976,13,236
977,-32,261
978,-95,56
979,-158,-167
980,-159,-212
981,-11,-151
982,92,-92
983,56,-85
984,23,-69
985,19,-66
986,25,-60
987,30,-61
988,29,-60
989,32,-56
990,31,-53
991,29,-46
992,30,-51
993,30,-44
994,37,-46
995,40,-52
996,40,-46
997,42,-39
998,37,-34
999,40,-32
1000,39,-34
1001,48,-37
1002,45,-40
1003,45,-33
1004,43,-31
1005,41,-31
1006,38,-32
1007,36,-35
1008,32,-42
1009,32,-53
1010,31,-55
1011,25,-58
1012,15,-60
1013,13,-62
1014,5,-71
1015,0,-75
1016,-2,-75
1017,-7,-72
1018,-11,-67
1019,-19,-61
1020,-17,-55
1021,-18,-57
1022,-11,-63
1023,-5,-72
1024,-5,-71
1025,0,-74
1026,9,-64
1027,4,-66
1028,9,-64
1029,18,-69
1030,16,-74
1031,21,-74
1032,19,-71
1033,20,-67
1034,22,-70
1035,19,-69
1036,18,-70
1037,24,-77
1038,26,-75
1039,19,-71
1040,20,-74
1041,19,-73
1042,22,-72
1043,22,-70
1044,24,-81
1045,21,-89
1046,23,-81
1047,26,-74
1048,25,-73
1049,26,-74
1050,30,-75
1051,25,-85
1052,28,-83
1053,26,-76
1054,27,-71
1055,21,-77
1056,24,-81
1057,25,-82
1058,33,-80
1059,29,-81
1060,26,-81
1061,23,-77
1062,19,-76
1063,15,-83
1064,26,-75
1065,24,-74
1066,22,-86
1067,18,-84
1068,18,-83
1069,22,-79
1070,14,-68
1071,21,-64
1072,25,-62
1073,29,-59
1074,32,-59
1075,25,-52
1076,28,-50
1077,23,-61
1078,21,-74
1079,28,-90
1080,27,-92
1081,31,-89
1082,25,-91
1083,21,-90
1084,18,-91
1085,24,-86
1086,17,-91
1087,19,-108
1088,13,-83
1089,20,61
1090,6,199
1091,-55,146
1092,-148,-20
1093,-205,-173
1094,-140,-219
1095,59,-171
1096,147,-116
1097,92,-77
1098,40,-70
1099,23,-64
1100,30,-59
1101,35,-63
1102,34,-60
1103,34,-56
1104,33,-51
1105,28,-51
1106,32,-52
1107,29,-51
1108,34,-49
1109,36,-47
1110,33,-43
1111,37,-39
1112,33,-38
1113,35,-32
1114,37,-35
1115,38,-35
1116,39,-35
1117,39,-43
1118,32,-35
1119,25,-36
1120,29,-42
1121,30,-44
1122,22,-49
1123,26,-56
1124,14,-56
1125,9,-66
1126,9,-65
1127,0,-74
1128,-7,-79
1129,-6,-80
1130,-15,-81
1131,-15,-77
1132,-23,-77
1133,-23,-68
1134,-23,-67
1135,-23,-73
1136,-17,-76
1137,-14,-78
1138,-10,-76
1139,-2,-76
1140,-2,-75
1141,-1,-76
1142,0,-80
1143,3,-78
1144,1,-82
1145,5,-84
1146,6,-81
1147,5,-79
1148,4,-77
1149,3,-81
1150,11,-88
1151,13,-91
1152,5,-88
1153,9,-87
1154,5,-88
1155,8,-87
1156,4,-92
1157,11,-93
1158,13,-96
1159,11,-97
1160,15,-96
1161,9,-94
1162,14,-88
1163,9,-88
1164,13,-90
1165,19,-95
1166,16,-91
1167,16,-92
1168,15,-92
1169,13,-92
1170,20,-92
1171,18,-90
1172,18,-97
1173,20,-94
1174,21,-96
1175,20,-90
1176,21,-90
1177,23,-88
1178,23,-92
1179,28,-92
1180,20,-92
1181,21,-93
1182,22,-94
1183,18,-86
1184,22,-89
1185,24,-86
1186,16,-87
1187,20,-77
1188,18,-68
1189,24,-60
1190,29,-59
1191,24,-57
1192,20,-57
1193,29,-61
1194,24,-68
1195,25,-87
1196,29,-97
1197,25,-94
1198,29,-96
1199,27,-100
1200,18,-101
1201,23,-97
1202,22,-97
1203,20,-99
1204,17,-105
1205,15,-12
1206,20,178
1207,-4,288
1208,-65,156
1209,-126,-90
1210,-157,-228
1211,-87,-196
1212,66,-131
1213,83,-95
1214,32,-88
1215,23,-84
1216,27,-81
1217,29,-78
1218,28,-78
1219,29,-70
1220,34,-71
1221,30,-71
1222,36,-72
1223,32,-71
1224,31,-71
1225,30,-67
1226,33,-64
1227,34,-63
1228,34,-62
1229,33,-68
1230,36,-66
1231,37,-64
1232,34,-60
1233,30,-54
1234,35,-56
1235,33,-63
1236,36,-61
1237,36,-71
1238,30,-67
1239,24,-69
1240,21,-71
1241,17,-81
1242,7,-85
1243,12,-90
1244,9,-96
1245,1,-101
1246,0,-101
1247,-5,-97
1248,-10,-91
1249,-13,-88
1250,-11,-87
1251,-9,-87
1252,-8,-83
1253,-11,-84
1254,-3,-79
1255,-2,-78
1256,0,-83
1257,1,-83
1258,2,-85
1259,6,-78
1260,11,-81
1261,9,-76
1262,5,-74
1263,6,-74
1264,9,-76
1265,12,-77
1266,10,-78
1267,12,-76
1268,3,-75
1269,9,-76
1270,10,-79
1271,8,-78
1272,12,-82
1273,12,-83
1274,12,-85
1275,13,-86
1276,10,-82
1277,8,-83
1278,15,-83
1279,16,-88
