,0,1
0,-17,-10
1,-18,-11
2,-16,-11
3,-17,-13
4,-17,-12
5,-18,-12
6,-19,-12
7,-19,-12
8,-10,-10
9,-10,-8
10,-8,-3
11,-5,-3
12,-2,1
13,-11,-3
14,-5,-13
15,-12,-16
16,-11,-15
17,-19,-18
18,-17,-20
19,-23,-19
20,-17,-20
21,-23,-19
22,-21,-21
23,-24,-20
24,-17,-19
25,-22,-17
26,-12,-18
27,-22,0
28,-22,1
29,45,1
30,211,55
31,269,78
32,157,-9
33,12,-95
34,-18,-100
35,-12,-55
36,-3,-25
37,-4,-8
38,-8,-4
39,-5,-3
40,-9,-1
41,-9,1
42,-11,2
43,-11,3
44,-10,4
45,-7,6
46,-9,8
47,-8,8
48,-7,12
49,-4,16
50,-3,19
51,2,20
52,2,23
53,7,26
54,9,30
55,12,33
56,17,40
57,24,45
58,30,50
59,38,55
60,44,62
61,52,65
62,56,75
63,64,77
64,73,80
65,74,83
66,77,83
67,77,78
68,77,75
69,69,71
70,67,61
71,52,49
72,44,39
73,31,30
74,23,19
75,9,15
76,5,5
77,1,3
78,-8,-2
79,-7,-5
80,-12,-8
81,-10,-5
82,-18,-6
83,-8,-8
84,-14,-6
85,-10,-6
86,-14,-5
87,-12,-6
88,-14,-3
89,-11,-3
90,-10,-2
91,-10,-3
92,-9,-2
93,-11,-2
94,-10,-1
95,-10,0
96,-7,-1
97,-8,-1
98,-7,-1
99,-8,-3
100,-9,-2
101,-10,-2
102,-7,-4
103,-8,-5
104,-9,-8
105,-10,-6
106,-12,-9
107,-15,-9
108,-15,-9
109,-11,-10
110,-15,-11
111,-15,-11
112,-15,-12
113,-16,-13
114,-21,-11
115,-15,-13
116,-18,-12
117,-16,-13
118,-19,-12
119,-19,-17
120,-19,-12
121,-22,-12
122,-15,-13
123,-19,-16
124,-17,-15
125,-21,-11
126,-18,-17
127,-22,-12
128,-21,-15
129,-16,-12
130,-22,-13
131,-17,-15
132,-21,-15
133,-21,-15
134,-23,-12
135,-17,-16
136,-19,-13
137,-21,-13
138,-18,-11
139,-16,-8
140,-12,-5
141,-11,0
142,-4,0
143,-10,-1
144,-14,-10
145,-15,-13
146,-18,-15
147,-24,-13
148,-24,-18
149,-24,-18
150,-29,-17
151,-29,-20
152,-30,-19
153,-30,-18
154,-30,-16
155,-26,-19
156,-25,-17
157,-21,-1
158,-30,5
159,22,0
160,168,40
161,237,67
162,155,10
163,24,-86
164,-25,-107
165,-28,-73
166,-16,-39
167,-14,-16
168,-12,-9
169,-15,-5
170,-15,-4
171,-18,-3
172,-17,-4
173,-18,-1
174,-18,0
175,-14,-1
176,-17,0
177,-15,1
178,-16,3
179,-15,3
180,-15,8
181,-10,11
182,-5,13
183,-7,16
184,0,19
185,0,23
186,5,28
187,7,34
188,21,38
189,22,45
190,30,49
191,38,55
192,46,58
193,51,65
194,56,69
195,64,69
196,65,71
197,66,68
198,64,67
199,59,56
200,51,52
201,44,41
202,35,33
203,23,23
204,9,13
205,1,5
206,-5,0
207,-14,-4
208,-14,-9
209,-21,-10
210,-21,-12
211,-23,-13
212,-22,-16
213,-26,-13
214,-24,-15
215,-22,-13
216,-22,-13
217,-24,-12
218,-24,-12
219,-19,-11
220,-24,-9
221,-19,-9
222,-18,-8
223,-19,-9
224,-17,-9
225,-17,-8
226,-14,-6
227,-21,-5
228,-11,-9
229,-16,-6
230,-14,-9
231,-17,-10
232,-17,-12
233,-17,-9
234,-19,-11
235,-15,-12
236,-21,-12
237,-21,-15
238,-22,-15
239,-21,-15
240,-23,-15
241,-21,-15
242,-19,-15
243,-22,-16
244,-24,-17
245,-22,-16
246,-23,-15
247,-23,-16
248,-21,-16
249,-22,-15
250,-21,-16
251,-22,-17
252,-22,-18
253,-24,-15
254,-21,-16
255,-19,-15
256,-22,-17
257,-24,-13
258,-25,-17
259,-23,-16
260,-28,-13
261,-19,-15
262,-26,-13
263,-23,-18
264,-25,-16
265,-21,-16
266,-18,-8
267,-16,-6
268,-8,-5
269,-8,-1
270,-4,-1
271,-18,-9
272,-16,-18
273,-21,-12
274,-21,-17
275,-22,-18
276,-25,-21
277,-28,-19
278,-31,-20
279,-29,-20
280,-31,-18
281,-23,-18
282,-25,-18
283,-24,-20
284,-21,-6
285,-25,6
286,-3,0
287,121,17
288,219,61
289,169,31
290,43,-58
291,-22,-107
292,-29,-84
293,-19,-46
294,-8,-21
295,-10,-11
296,-12,-5
297,-14,-4
298,-14,-4
299,-17,-2
300,-14,-2
301,-14,-1
302,-14,-1
303,-15,-2
304,-14,0
305,-12,3
306,-12,5
307,-4,6
308,-5,9
309,-2,13
310,-3,16
311,2,16
312,3,24
313,10,26
314,17,31
315,18,34
316,28,41
317,33,47
318,42,53
319,45,58
320,57,61
321,60,65
322,63,65
323,67,65
324,66,64
325,65,63
326,62,56
327,59,48
328,47,40
329,35,33
330,24,23
331,14,15
332,5,9
333,0,2
334,-8,-2
335,-12,-6
336,-19,-10
337,-19,-11
338,-23,-10
339,-21,-13
340,-22,-13
341,-23,-13
342,-24,-11
343,-26,-15
344,-25,-11
345,-26,-9
346,-21,-9
347,-23,-9
348,-19,-10
349,-21,-5
350,-15,-9
351,-18,-3
352,-12,-6
353,-9,-3
354,-11,-6
355,-9,-6
356,-12,-9
357,-10,-6
358,-16,-8
359,-7,-9
360,-16,-11
361,-12,-11
362,-18,-11
363,-16,-15
364,-22,-11
365,-17,-13
366,-17,-13
367,-21,-15
368,-19,-15
369,-23,-16
370,-22,-13
371,-24,-15
372,-18,-15
373,-23,-15
374,-21,-15
375,-23,-15
376,-21,-16
377,-23,-13
378,-21,-15
379,-21,-15
380,-21,-15
381,-22,-15
382,-24,-16
383,-24,-15
384,-21,-13
385,-22,-13
386,-22,-15
387,-24,-16
388,-24,-16
389,-28,-13
390,-23,-13
391,-24,-17
392,-21,-16
393,-18,-11
394,-16,-10
395,-19,-8
396,-9,-5
397,-7,-1
398,-5,-4
399,-11,-8
400,-15,-17
401,-18,-13
402,-23,-18
403,-22,-20
404,-26,-21
405,-25,-19
406,-32,-24
407,-29,-20
408,-31,-21
409,-23,-21
410,-29,-20
411,-22,-23
412,-25,-9
413,-24,5
414,0,-1
415,148,24
416,259,71
417,187,26
418,43,-70
419,-21,-116
420,-21,-69
421,-10,-38
422,-7,-16
423,-10,-8
424,-12,-6
425,-14,-6
426,-16,-3
427,-15,-4
428,-15,-2
429,-15,-1
430,-16,1
431,-14,0
432,-15,2
433,-11,6
434,-9,6
435,-8,9
436,-7,12
437,-3,16
438,-2,20
439,2,23
440,9,25
441,10,32
442,18,36
443,21,41
444,32,48
445,33,60
446,50,61
447,53,69
448,62,72
449,65,77
450,71,77
451,72,79
452,72,78
453,77,73
454,69,70
455,63,57
456,51,48
457,40,39
458,28,31
459,22,19
460,9,11
461,0,3
462,-5,-1
463,-12,-6
464,-15,-6
465,-19,-8
466,-16,-11
467,-21,-11
468,-19,-12
469,-21,-11
470,-22,-12
471,-22,-11
472,-18,-9
473,-17,-9
474,-18,-8
475,-18,-8
476,-15,-8
477,-16,-2
478,-15,-3
479,-10,-4
480,-11,-3
481,-9,-2
482,-11,-4
483,-8,-4
484,-11,-3
485,-8,-5
486,-7,-5
487,-10,-8
488,-10,-8
489,-14,-9
490,-14,-10
491,-19,-9
492,-11,-12
493,-17,-11
494,-17,-13
495,-18,-15
496,-21,-15
497,-21,-12
498,-22,-12
499,-16,-15
500,-22,-15
501,-19,-15
502,-21,-12
503,-21,-15
504,-22,-11
505,-21,-13
506,-18,-13
507,-21,-15
508,-18,-16
509,-22,-15
510,-19,-15
511,-22,-12
512,-21,-15
513,-17,-12
514,-22,-13
515,-19,-15
516,-22,-15
517,-22,-13
518,-23,-13
519,-21,-16
520,-17,-15
521,-15,-11
522,-17,-10
523,-12,-8
524,-11,-3
525,-4,-1
526,-4,-2
527,-10,-10
528,-12,-13
529,-16,-16
530,-18,-18
531,-25,-19
532,-18,-21
533,-28,-18
534,-26,-21
535,-29,-20
536,-26,-23
537,-26,-18
538,-26,-19
539,-18,-21
540,-29,-9
541,-32,6
542,-1,-9
543,168,32
544,283,84
545,200,26
546,24,-75
547,-24,-117
548,-22,-65
549,-10,-34
550,-8,-13
551,-15,-5
552,-10,-4
553,-12,-3
554,-15,-3
555,-15,-3
556,-17,-4
557,-16,-1
558,-18,2
559,-11,-1
560,-12,2
561,-10,5
562,-10,6
563,-8,8
564,-7,12
565,-2,17
566,2,18
567,2,23
568,7,26
569,11,30
570,16,38
571,21,42
572,31,49
573,36,56
574,43,61
575,51,67
576,58,71
577,62,77
578,69,79
579,73,78
580,72,77
581,71,75
582,66,69
583,62,60
584,47,52
585,43,40
586,29,30
587,19,18
588,8,11
589,1,2
590,-7,-1
591,-16,-6
592,-10,-10
593,-19,-9
594,-16,-13
595,-21,-13
596,-18,-15
597,-23,-10
598,-18,-12
599,-17,-12
600,-21,-12
601,-17,-11
602,-18,-9
603,-18,-9
604,-18,-6
605,-14,-8
606,-15,-5
607,-16,-6
608,-15,-6
609,-14,-5
610,-15,-4
611,-12,-6
612,-10,-6
613,-11,-8
614,-12,-8
615,-15,-10
616,-16,-9
617,-15,-10
618,-15,-12
619,-16,-12
620,-17,-13
621,-19,-15
622,-19,-13
623,-24,-15
624,-19,-15
625,-22,-15
626,-19,-16
627,-24,-15
628,-21,-17
629,-30,-12
630,-23,-17
631,-25,-15
632,-24,-18
633,-25,-12
634,-25,-19
635,-26,-16
636,-29,-15
637,-19,-15
638,-28,-16
639,-22,-17
640,-26,-15
641,-23,-17
642,-29,-13
643,-22,-16
644,-23,-15
645,-23,-17
646,-25,-17
647,-26,-19
648,-28,-16
649,-25,-18
650,-25,-17
651,-24,-19
652,-19,-16
653,-22,-15
654,-19,-11
655,-15,-10
656,-9,-6
657,-9,-5
658,-11,-10
659,-16,-16
660,-19,-19
661,-21,-19
662,-23,-23
663,-25,-25
664,-28,-23
665,-30,-24
666,-32,-24
667,-32,-23
668,-28,-23
669,-29,-21
670,-25,-23
671,-29,-19
672,-32,-4
673,-28,-8
674,91,5
675,235,62
676,231,48
677,77,-34
678,-12,-117
679,-35,-89
680,-17,-53
681,-11,-23
682,-14,-11
683,-17,-9
684,-18,-9
685,-22,-3
686,-21,-5
687,-15,-3
688,-21,-4
689,-17,-1
690,-17,-1
691,-16,1
692,-17,2
693,-8,5
694,-11,6
695,-7,9
696,-7,12
697,-4,17
698,-2,20
699,4,24
700,5,27
701,10,32
702,14,38
703,19,42
704,24,52
705,35,56
706,42,62
707,47,67
708,54,70
709,58,75
710,63,76
711,65,75
712,66,72
713,63,70
714,59,61
715,52,52
716,38,43
717,33,34
718,19,23
719,10,15
720,-1,6
721,-8,1
722,-16,-3
723,-16,-6
724,-22,-10
725,-21,-10
726,-26,-11
727,-23,-15
728,-30,-11
729,-19,-11
730,-26,-10
731,-24,-12
732,-26,-9
733,-21,-10
734,-25,-5
735,-19,-9
736,-21,-3
737,-19,-5
738,-21,-3
739,-18,-5
740,-21,-3
741,-16,-3
742,-15,-3
743,-16,-5
744,-18,-5
745,-17,-5
746,-19,-4
747,-17,-8
748,-19,-9
749,-21,-8
750,-22,-9
751,-24,-11
752,-26,-9
753,-24,-10
754,-26,-11
755,-26,-11
756,-26,-12
757,-29,-12
758,-31,-11
759,-25,-12
760,-31,-13
761,-30,-11
762,-29,-15
763,-30,-15
764,-30,-13
765,-22,-11
766,-30,-12
767,-25,-12
768,-32,-15
769,-28,-9
770,-30,-12
771,-24,-11
772,-28,-12
773,-28,-10
774,-29,-11
775,-30,-10
776,-28,-11
777,-26,-10
778,-29,-12
779,-30,-11
780,-29,-12
781,-24,-9
782,-21,-3
783,-18,-4
784,-15,0
785,-12,2
786,-18,1
787,-23,-8
788,-21,-11
789,-25,-13
790,-28,-12
791,-31,-19
792,-31,-16
793,-35,-15
794,-31,-16
795,-33,-17
796,-33,-15
797,-33,-17
798,-32,-16
799,-29,-15
800,-23,5
801,-33,9
802,44,0
803,198,48
804,215,73
805,98,-10
806,-18,-93
807,-32,-99
808,-30,-56
809,-18,-26
810,-17,-5
811,-16,-2
812,-18,1
813,-21,3
814,-19,4
815,-24,8
816,-19,9
817,-19,11
818,-17,12
819,-21,15
820,-18,12
821,-21,20
822,-11,18
823,-14,24
824,-9,25
825,-10,28
826,-4,31
827,-7,35
828,5,38
829,4,42
830,12,49
831,12,53
832,22,57
833,26,67
834,39,71
835,43,78
836,51,79
837,52,84
838,53,87
839,59,86
840,63,84
841,60,84
842,54,76
843,47,70
844,37,64
845,28,55
846,14,45
847,5,36
848,-4,28
849,-10,28
850,-17,21
851,-18,19
852,-25,15
853,-23,15
854,-28,11
855,-26,13
856,-29,12
857,-25,13
858,-29,11
859,-28,13
860,-25,12
861,-25,18
862,-24,17
863,-21,17
864,-23,18
865,-19,20
866,-18,20
867,-17,20
868,-15,20
869,-15,20
870,-15,20
871,-15,19
872,-14,18
873,-19,18
874,-12,17
875,-18,15
876,-15,13
877,-21,16
878,-17,9
879,-24,13
880,-18,9
881,-21,11
882,-22,9
883,-23,10
884,-21,8
885,-26,11
886,-23,9
887,-22,9
888,-26,8
889,-28,10
890,-26,8
891,-28,9
892,-26,10
893,-29,9
894,-30,9
895,-30,8
896,-30,8
897,-33,11
898,-30,10
899,-29,10
900,-26,10
901,-24,16
902,-22,17
903,-21,20
904,-17,21
905,-8,25
906,-22,19
907,-22,9
908,-24,8
909,-25,9
910,-31,9
911,-26,4
912,-31,6
913,-33,8
914,-35,8
915,-35,6
916,-33,9
917,-30,9
918,-28,9
919,-25,16
920,-31,30
921,-15,27
922,105,42
923,228,92
924,196,75
925,53,-18
926,-19,-76
927,-26,-53
928,-21,-13
929,-11,10
930,-10,21
931,-16,23
932,-16,26
933,-18,25
934,-18,30
935,-21,28
936,-12,31
937,-19,33
938,-15,32
939,-17,32
940,-12,34
941,-16,40
942,-9,39
943,-7,42
944,-7,45
945,-4,49
946,1,50
947,2,54
948,9,60
949,17,64
950,18,69
951,28,73
952,35,79
953,40,87
954,49,91
955,57,97
956,62,98
957,65,102
958,67,100
959,71,101
960,65,99
961,70,93
962,58,85
963,53,76
964,39,65
965,31,55
966,15,46
967,11,35
968,3,31
969,-5,23
970,-10,19
971,-14,15
972,-16,16
973,-19,13
974,-15,10
975,-19,10
976,-21,8
977,-21,9
978,-21,8
979,-22,10
980,-21,10
981,-17,11
982,-18,11
983,-17,11
984,-16,12
985,-16,16
986,-11,15
987,-9,15
988,-9,15
989,-9,16
990,-9,12
991,-10,12
992,-11,12
993,-7,11
994,-11,10
995,-9,8
996,-16,6
997,-14,5
998,-18,8
999,-12,3
1000,-15,3
1001,-15,3
1002,-16,3
1003,-17,1
1004,-17,2
1005,-18,2
1006,-12,1
1007,-18,-1
1008,-17,0
1009,-18,-2
1010,-19,-1
1011,-19,-4
1012,-16,-5
1013,-18,-5
1014,-18,-6
1015,-19,-8
1016,-19,-10
1017,-22,-6
1018,-19,-10
1019,-22,-11
1020,-19,-11
1021,-19,-10
1022,-16,-11
1023,-14,-5
1024,-15,-3
1025,-2,-2
1026,-7,0
1027,-12,-6
1028,-17,-16
1029,-14,-18
1030,-22,-17
1031,-16,-23
1032,-23,-23
1033,-21,-24
1034,-28,-24
1035,-26,-26
1036,-28,-24
1037,-23,-23
1038,-23,-23
1039,-21,-25
1040,-22,-13
1041,-31,-1
1042,5,-8
1043,153,23
1044,263,70
1045,212,32
1046,50,-60
1047,-15,-115
1048,-21,-80
1049,-9,-45
1050,3,-23
1051,-8,-15
1052,-7,-12
1053,-10,-9
1054,-10,-11
1055,-12,-5
1056,-9,-8
1057,-9,-4
1058,-9,-5
1059,-9,-4
1060,-7,-3
1061,-8,1
1062,-5,2
1063,-1,3
1064,-3,6
1065,0,8
1066,2,10
1067,5,13
1068,9,17
1069,17,23
1070,21,27
1071,26,30
1072,32,38
1073,40,43
1074,44,52
1075,57,54
1076,60,60
1077,65,62
1078,69,65
1079,72,63
1080,72,65
1081,71,62
1082,74,57
1083,63,48
1084,58,36
1085,42,27
1086,35,16
1087,18,9
1088,16,-1
1089,8,-5
1090,-1,-13
1091,-4,-17
1092,-9,-23
1093,-10,-20
1094,-14,-23
1095,-9,-26
1096,-12,-27
1097,-11,-26
1098,-15,-27
1099,-14,-27
1100,-14,-25
1101,-8,-25
1102,-10,-24
1103,-9,-24
1104,-9,-24
1105,-8,-23
1106,-10,-21
1107,-3,-21
1108,-5,-21
1109,-3,-21
1110,-5,-23
1111,-3,-25
1112,-8,-23
1113,-2,-24
1114,-2,-25
1115,-7,-28
1116,-7,-28
1117,-8,-32
1118,-9,-31
1119,-16,-32
1120,-5,-34
1121,-15,-33
1122,-11,-36
1123,-14,-36
1124,-15,-38
1125,-17,-36
1126,-12,-39
1127,-14,-39
1128,-15,-40
1129,-15,-41
1130,-15,-40
1131,-17,-40
1132,-15,-39
1133,-15,-40
1134,-14,-40
1135,-16,-41
1136,-16,-42
1137,-19,-39
1138,-15,-39
1139,-16,-41
1140,-17,-40
1141,-16,-40
1142,-15,-42
1143,-14,-36
1144,-8,-35
1145,-4,-30
1146,-1,-28
1147,-3,-27
1148,-12,-38
1149,-9,-41
1150,-16,-39
1151,-11,-41
1152,-19,-42
1153,-18,-45
1154,-24,-45
1155,-23,-46
1156,-28,-45
1157,-21,-43
1158,-22,-42
1159,-21,-42
1160,-19,-42
1161,-23,-28
1162,-29,-19
1163,32,-25
1164,186,16
1165,258,52
1166,155,-3
1167,23,-104
1168,-26,-120
1169,-16,-87
1170,-8,-54
1171,-5,-36
1172,-10,-30
1173,-9,-26
1174,-16,-23
1175,-5,-23
1176,-14,-20
1177,-8,-20
1178,-14,-19
1179,-8,-19
1180,-12,-16
1181,-5,-16
1182,-7,-13
1183,-5,-11
1184,-5,-9
1185,-1,-6
1186,0,-2
1187,4,0
1188,9,4
1189,10,5
1190,14,11
1191,19,15
1192,24,23
1193,30,28
1194,39,35
1195,46,41
1196,51,47
1197,57,50
1198,60,55
1199,67,56
1200,69,56
1201,70,54
1202,66,52
1203,65,45
1204,53,39
1205,51,30
1206,35,21
1207,26,10
1208,12,1
1209,8,-5
1210,-4,-10
1211,-4,-18
1212,-11,-18
1213,-11,-23
1214,-17,-20
1215,-15,-25
1216,-19,-21
1217,-15,-24
1218,-16,-21
1219,-17,-25
1220,-18,-21
1221,-19,-23
1222,-17,-18
1223,-16,-20
1224,-12,-19
1225,-15,-17
1226,-14,-16
1227,-14,-17
1228,-16,-15
1229,-11,-13
1230,-12,-12
1231,-11,-15
1232,-14,-16
1233,-11,-15
1234,-15,-13
1235,-9,-15
1236,-11,-15
1237,-12,-16
1238,-16,-16
1239,-16,-19
1240,-22,-15
1241,-15,-17
1242,-18,-16
1243,-21,-20
1244,-21,-16
1245,-22,-20
1246,-23,-16
1247,-23,-20
1248,-19,-18
1249,-22,-19
1250,-22,-20
1251,-22,-20
1252,-24,-19
1253,-24,-19
1254,-21,-19
1255,-24,-20
1256,-22,-21
1257,-23,-20
1258,-26,-19
1259,-24,-20
1260,-23,-19
1261,-26,-20
1262,-26,-20
1263,-26,-23
1264,-24,-18
1265,-19,-15
1266,-14,-12
1267,-16,-11
1268,-9,-9
1269,-12,-6
1270,-17,-16
1271,-24,-23
1272,-17,-23
1273,-25,-21
1274,-25,-26
1275,-29,-28
1276,-30,-27
1277,-35,-24
1278,-32,-26
1279,-31,-24
