,0,1
0,106,-147
1,47,-67
2,0,-25
3,-14,0
4,-19,9
5,-26,16
6,-23,20
7,-23,21
8,-25,21
9,-23,22
10,-26,22
11,-24,25
12,-29,27
13,-21,24
14,-27,27
15,-21,28
16,-26,32
17,-21,29
18,-26,33
19,-23,36
20,-24,37
21,-21,44
22,-22,40
23,-20,46
24,-21,49
25,-17,48
26,-16,51
27,-12,49
28,-13,49
29,-7,47
30,-5,43
31,1,44
32,0,35
33,3,28
34,1,23
35,2,17
36,2,15
37,3,9
38,1,6
39,0,7
40,-1,7
41,0,2
42,-4,9
43,1,6
44,-1,6
45,-2,3
46,-4,8
47,-3,5
48,-5,9
49,-5,6
50,-4,11
51,-4,9
52,-8,11
53,-10,9
54,-12,15
55,-6,13
56,-10,12
57,-11,9
58,-14,8
59,-13,15
60,-10,11
61,-12,7
62,-8,5
63,-7,6
64,-6,5
65,-6,3
66,-8,2
67,-7,4
68,-3,4
69,-4,1
70,-5,2
71,-7,0
72,-2,4
73,-9,3
74,3,1
75,-4,0
76,-1,4
77,2,2
78,3,13
79,3,20
80,9,17
81,11,16
82,13,0
83,13,-12
84,18,-8
85,20,-7
86,14,-11
87,20,-10
88,19,-9
89,8,-8
90,0,-4
91,-3,-5
92,-7,-4
93,-9,-2
94,-10,-5
95,-5,-1
96,-7,-3
97,-7,-7
98,-9,-9
99,-1,3
100,-11,21
101,0,-8
102,19,-45
103,57,-111
104,79,-168
105,63,-204
106,54,-212
107,82,-179
108,65,-107
109,8,-51
110,-8,-20
111,-20,5
112,-15,10
113,-26,15
114,-17,17
115,-20,24
116,-20,21
117,-22,18
118,-17,21
119,-19,20
120,-18,26
121,-15,26
122,-20,28
123,-16,22
124,-20,28
125,-15,28
126,-21,30
127,-14,33
128,-13,33
129,-13,39
130,-11,38
131,-12,40
132,-11,41
133,-8,46
134,-3,45
135,-2,44
136,0,44
137,0,43
138,4,42
139,7,40
140,10,36
141,10,28
142,11,24
143,12,21
144,9,17
145,9,13
146,13,12
147,7,10
148,8,11
149,7,8
150,7,8
151,4,13
152,11,8
153,4,7
154,5,6
155,5,6
156,3,13
157,2,11
158,2,13
159,3,10
160,0,15
161,0,14
162,0,15
163,-3,17
164,0,12
165,0,13
166,-2,16
167,-1,11
168,0,11
169,-1,8
170,0,10
171,0,9
172,1,6
173,0,4
174,0,7
175,0,7
176,4,4
177,1,9
178,3,8
179,0,4
180,1,4
181,1,8
182,4,4
183,2,5
184,4,7
185,9,11
186,12,16
187,14,24
188,17,29
189,19,15
190,20,0
191,22,-6
192,20,-5
193,21,-6
194,20,-8
195,14,-4
196,6,0
197,0,0
198,-6,0
199,-8,-1
200,-9,0
201,-6,-4
202,-7,-4
203,-7,0
204,-8,-2
205,-7,-6
206,-6,4
207,-6,25
208,0,-16
209,14,-61
210,55,-129
211,78,-185
212,64,-213
213,66,-208
214,104,-168
215,79,-98
216,16,-41
217,-9,-11
218,-19,10
219,-22,16
220,-21,20
221,-22,20
222,-23,23
223,-24,27
224,-25,25
225,-22,25
226,-23,26
227,-21,27
228,-21,27
229,-24,29
230,-27,32
231,-19,30
232,-23,35
233,-18,35
234,-22,35
235,-24,41
236,-23,44
237,-16,43
238,-20,46
239,-18,47
240,-18,51
241,-15,52
242,-10,53
243,-8,54
244,-4,51
245,-5,50
246,0,44
247,0,45
248,7,37
249,4,31
250,6,25
251,5,20
252,5,21
253,4,15
254,5,13
255,2,12
256,1,11
257,0,13
258,0,11
259,0,11
260,1,11
261,0,9
262,-1,10
263,-1,15
264,-3,14
265,-1,12
266,-4,18
267,-6,17
268,-8,16
269,-7,17
270,-10,18
271,-10,20
272,-7,18
273,-8,14
274,-10,13
275,-9,15
276,-6,11
277,-6,14
278,-6,12
279,-5,10
280,-7,12
281,-4,6
282,0,10
283,-3,11
284,-3,10
285,-4,3
286,-3,12
287,0,8
288,-1,8
289,-2,9
290,1,7
291,2,11
292,4,18
293,7,20
294,10,26
295,15,22
296,15,5
297,16,-5
298,17,-5
299,16,-6
300,18,-7
301,16,-6
302,4,-4
303,0,0
304,-3,0
305,-12,0
306,-11,-1
307,-11,0
308,-10,-2
309,-12,0
310,-11,-3
311,-11,-2
312,-11,3
313,-8,13
314,-6,9
315,1,-26
316,27,-74
317,62,-143
318,70,-185
319,55,-206
320,62,-206
321,82,-168
322,50,-96
323,5,-40
324,-14,-2
325,-18,6
326,-24,14
327,-27,18
328,-22,23
329,-22,18
330,-26,31
331,-25,25
332,-20,25
333,-25,23
334,-23,23
335,-25,30
336,-21,30
337,-24,29
338,-22,29
339,-22,31
340,-20,36
341,-22,34
342,-21,38
343,-20,39
344,-16,44
345,-18,44
346,-16,44
347,-16,47
348,-14,47
349,-11,46
350,-4,49
351,-3,47
352,-1,43
353,0,37
354,0,36
355,1,33
356,4,25
357,2,21
358,3,20
359,2,16
360,0,17
361,0,15
362,0,8
363,0,11
364,-2,11
365,-1,8
366,-3,10
367,0,11
368,-2,11
369,0,7
370,-4,13
371,-2,12
372,-9,13
373,-1,10
374,-7,18
375,-5,14
376,-8,14
377,-11,14
378,-9,15
379,-8,16
380,-7,14
381,-10,13
382,-8,9
383,-9,12
384,-3,14
385,-4,7
386,-3,7
387,-6,9
388,-4,0
389,-6,14
390,-2,5
391,-2,7
392,-2,7
393,-1,5
394,-2,1
395,-3,11
396,-2,6
397,0,4
398,-1,5
399,3,6
400,7,15
401,6,23
402,10,25
403,17,7
404,13,-1
405,16,-5
406,17,-6
407,19,-7
408,16,-10
409,12,-3
410,3,-3
411,-2,-2
412,-7,-2
413,-10,-2
414,-13,-1
415,-12,-1
416,-10,-3
417,-11,-2
418,-12,-5
419,-11,-5
420,-10,4
421,-10,14
422,-7,3
423,3,-40
424,36,-95
425,67,-159
426,67,-200
427,60,-216
428,87,-197
429,93,-141
430,46,-75
431,0,-29
432,-15,-1
433,-20,10
434,-22,17
435,-22,21
436,-23,19
437,-24,22
438,-28,24
439,-23,23
440,-22,25
441,-23,23
442,-26,24
443,-23,27
444,-27,28
445,-23,26
446,-23,27
447,-24,34
448,-24,34
449,-24,32
450,-27,40
451,-21,38
452,-22,47
453,-21,42
454,-20,48
455,-20,44
456,-17,54
457,-15,49
458,-8,51
459,-9,48
460,-3,46
461,-3,40
462,0,38
463,0,31
464,5,24
465,1,21
466,3,20
467,2,14
468,0,11
469,0,9
470,0,9
471,0,10
472,-1,7
473,-1,6
474,-2,6
475,-3,8
476,-1,11
477,-3,8
478,-5,9
479,-5,11
480,-7,12
481,-7,13
482,-5,11
483,-8,17
484,-10,17
485,-9,11
486,-12,16
487,-15,14
488,-9,14
489,-11,14
490,-6,12
491,-10,10
492,-9,4
493,-12,16
494,0,8
495,-8,10
496,-1,3
497,-7,10
498,-4,9
499,-6,7
500,-2,8
501,-2,8
502,-4,5
503,-3,6
504,-2,9
505,4,7
506,3,16
507,11,22
508,8,28
509,12,20
510,11,3
511,14,-3
512,14,-3
513,18,-8
514,19,-13
515,14,-10
516,7,-1
517,0,-2
518,-6,-3
519,-10,-1
520,-8,0
521,-13,-1
522,-12,-5
523,-12,-1
524,-11,0
525,-14,-1
526,-8,-7
527,-6,10
528,-10,16
529,-3,-19
530,19,-69
531,53,-135
532,72,-189
533,52,-216
534,54,-222
535,93,-181
536,60,-110
537,9,-50
538,-10,-12
539,-21,6
540,-25,18
541,-23,13
542,-25,23
543,-22,21
544,-23,20
545,-23,27
546,-23,24
547,-25,24
548,-23,26
549,-23,26
550,-23,28
551,-22,29
552,-24,30
553,-20,29
554,-22,35
555,-20,36
556,-22,34
557,-19,41
558,-16,34
559,-22,48
560,-18,49
561,-11,45
562,-10,44
563,-8,48
564,-8,47
565,-4,45
566,-3,45
567,1,45
568,0,37
569,5,31
570,4,26
571,3,21
572,5,16
573,5,14
574,4,11
575,1,9
576,2,9
577,-2,8
578,6,7
579,3,2
580,2,11
581,-4,5
582,-1,8
583,-2,9
584,0,8
585,0,9
586,-3,8
587,0,12
588,-4,13
589,-5,10
590,-5,12
591,-6,14
592,-8,8
593,-6,14
594,-9,14
595,-4,11
596,-5,10
597,-4,10
598,-6,6
599,-6,6
600,-6,9
601,-6,8
602,-2,6
603,-1,7
604,-2,6
605,-4,4
606,0,7
607,-7,8
608,0,4
609,-2,8
610,0,6
611,-1,7
612,1,7
613,3,11
614,10,16
615,12,22
616,16,17
617,17,2
618,22,-3
619,20,-4
620,24,-5
621,24,-9
622,21,-9
623,15,-5
624,8,-4
625,0,-2
626,0,0
627,-2,-1
628,-4,-2
629,-5,-4
630,-6,-2
631,-7,-1
632,-5,-3
633,-5,-7
634,-4,3
635,-9,19
636,-5,-2
637,14,-41
638,56,-104
639,79,-162
640,65,-200
641,72,-217
642,106,-178
643,87,-112
644,22,-53
645,-6,-14
646,-18,-1
647,-18,14
648,-22,17
649,-18,17
650,-21,20
651,-20,20
652,-21,20
653,-21,23
654,-22,22
655,-21,24
656,-20,24
657,-20,24
658,-20,27
659,-23,27
660,-15,28
661,-20,30
662,-19,27
663,-18,35
664,-19,38
665,-18,36
666,-18,42
667,-16,39
668,-16,50
669,-13,43
670,-14,47
671,-7,46
672,-8,44
673,-3,48
674,-3,41
675,0,37
676,0,34
677,7,26
678,2,19
679,5,17
680,3,12
681,6,11
682,5,8
683,7,10
684,4,8
685,6,6
686,3,5
687,4,5
688,6,7
689,6,7
690,7,6
691,6,6
692,5,6
693,3,9
694,5,8
695,6,12
696,1,9
697,2,12
698,0,11
699,3,16
700,2,14
701,0,9
702,0,10
703,0,9
704,0,10
705,3,11
706,2,9
707,5,6
708,1,9
709,5,3
710,0,6
711,6,6
712,5,7
713,5,4
714,4,4
715,4,6
716,5,7
717,8,8
718,16,14
719,16,22
720,22,26
721,23,17
722,22,0
723,25,-4
724,30,-6
725,29,-11
726,26,-10
727,22,-6
728,12,-4
729,6,-4
730,2,-1
731,0,-3
732,-3,-1
733,-4,-3
734,-8,-1
735,-2,-2
736,-2,0
737,-1,-7
738,-3,-7
739,0,17
740,-8,13
741,5,-29
742,31,-79
743,65,-151
744,79,-202
745,65,-225
746,73,-215
747,107,-171
748,82,-105
749,23,-49
750,-4,-14
751,-13,5
752,-19,16
753,-16,18
754,-22,19
755,-17,21
756,-17,24
757,-16,24
758,-21,26
759,-18,26
760,-18,26
761,-18,25
762,-16,29
763,-19,34
764,-17,33
765,-17,31
766,-16,35
767,-19,38
768,-17,38
769,-20,43
770,-13,42
771,-13,48
772,-14,49
773,-9,51
774,-5,47
775,-5,54
776,-5,55
777,1,52
778,0,46
779,5,48
780,5,37
781,9,33
782,7,29
783,13,22
784,10,19
785,7,14
786,7,15
787,3,12
788,5,12
789,7,13
790,4,10
791,3,9
792,3,8
793,0,10
794,0,10
795,6,13
796,0,12
797,0,12
798,-1,14
799,0,14
800,-4,17
801,0,14
802,-2,18
803,-3,17
804,-5,17
805,-5,15
806,-5,16
807,-7,17
808,-6,12
809,0,13
810,-3,12
811,0,12
812,-2,8
813,0,8
814,-3,9
815,0,9
816,0,8
817,0,8
818,0,7
819,0,7
820,0,6
821,0,7
822,2,5
823,0,7
824,1,6
825,0,5
826,0,3
827,2,7
828,11,9
829,13,16
830,9,20
831,17,22
832,15,7
833,20,-5
834,19,-4
835,25,-5
836,19,-8
837,20,-7
838,11,-4
839,4,-2
840,-2,0
841,-4,0
842,-6,0
843,-8,0
844,-9,0
845,-9,0
846,-13,0
847,-7,-1
848,-7,0
849,-5,4
850,-7,18
851,-7,2
852,9,-31
853,54,-93
854,75,-156
855,64,-195
856,58,-208
857,82,-194
858,70,-125
859,18,-64
860,-7,-20
861,-18,0
862,-21,9
863,-22,14
864,-22,18
865,-26,19
866,-19,19
867,-24,21
868,-20,21
869,-24,20
870,-20,21
871,-23,25
872,-17,23
873,-23,25
874,-18,26
875,-21,28
876,-21,26
877,-20,32
878,-18,31
879,-17,34
880,-18,36
881,-16,37
882,-13,42
883,-14,43
884,-7,44
885,-9,44
886,-2,46
887,-4,42
888,0,44
889,0,42
890,6,36
891,6,32
892,7,26
893,7,20
894,7,18
895,7,14
896,7,13
897,7,7
898,5,8
899,3,9
900,3,8
901,0,8
902,4,5
903,4,5
904,2,6
905,0,7
906,1,5
907,0,4
908,0,7
909,0,6
910,0,7
911,-1,8
912,-2,10
913,-4,6
914,-4,10
915,-5,14
916,-3,10
917,-6,8
918,-3,8
919,-5,8
920,-4,9
921,-5,9
922,0,6
923,-2,7
924,0,5
925,-1,0
926,0,5
927,-2,5
928,2,1
929,1,3
930,1,0
931,0,3
932,2,-1
933,-1,8
934,0,2
935,7,5
936,10,14
937,12,19
938,13,19
939,15,25
940,15,7
941,20,-6
942,18,-7
943,21,-8
944,18,-12
945,17,-10
946,8,-7
947,1,-6
948,-4,-4
949,-10,-4
950,-11,-5
951,-14,-2
952,-12,-4
953,-10,-3
954,-11,-4
955,-12,-8
956,-12,-7
957,-7,0
958,-16,21
959,-4,-12
960,7,-61
961,46,-134
962,67,-187
963,67,-216
964,55,-219
965,96,-195
966,90,-132
967,30,-66
968,-7,-24
969,-21,-3
970,-24,8
971,-25,12
972,-27,14
973,-28,18
974,-27,14
975,-30,22
976,-29,19
977,-27,19
978,-28,20
979,-27,22
980,-29,22
981,-26,23
982,-32,27
983,-24,28
984,-29,27
985,-26,32
986,-29,34
987,-26,35
988,-29,40
989,-21,37
990,-21,43
991,-19,44
992,-22,42
993,-17,46
994,-15,48
995,-11,48
996,-5,43
997,-5,39
998,-2,34
999,-2,30
1000,-1,28
1001,1,19
1002,2,15
1003,2,10
1004,1,9
1005,0,4
1006,-2,3
1007,-2,4
1008,-1,3
1009,-1,3
1010,-2,3
1011,-4,2
1012,-4,0
1013,-6,5
1014,-5,3
1015,-4,6
1016,-7,5
1017,-8,5
1018,-8,6
1019,-12,7
1020,-12,11
1021,-15,10
1022,-10,6
1023,-17,8
1024,-13,7
1025,-14,7
1026,-9,0
1027,-17,10
1028,-5,3
1029,-9,1
1030,-10,2
1031,-10,3
1032,-7,0
1033,-9,2
1034,-3,0
1035,-2,1
1036,-1,0
1037,-3,0
1038,-4,0
1039,-7,2
1040,-5,1
1041,-4,1
1042,-3,1
1043,-2,1
1044,-3,1
1045,-4,0
1046,-1,3
1047,7,10
1048,9,15
1049,10,17
1050,11,10
1051,11,-3
1052,13,-6
1053,18,-9
1054,20,-11
1055,17,-13
1056,10,-6
1057,1,-9
1058,-3,-4
1059,-5,-3
1060,-11,-2
1061,-12,-3
1062,-13,-4
1063,-15,-2
1064,-14,-1
1065,-13,-5
1066,-10,-7
1067,-12,-3
1068,-11,10
1069,-17,17
1070,-1,-18
1071,29,-67
1072,70,-140
1073,71,-184
1074,55,-213
1075,66,-208
1076,82,-160
1077,39,-89
1078,0,-38
1079,-15,-7
1080,-24,7
1081,-24,12
1082,-27,16
1083,-21,20
1084,-24,16
1085,-24,19
1086,-28,23
1087,-20,22
1088,-23,23
1089,-20,22
1090,-21,23
1091,-24,25
1092,-17,25
1093,-24,26
1094,-18,28
1095,-20,32
1096,-17,32
1097,-18,37
1098,-15,38
1099,-13,40
1100,-13,44
1101,-9,41
1102,-12,47
1103,-5,44
1104,-5,46
1105,0,43
1106,-1,45
1107,3,42
1108,0,44
1109,7,37
1110,5,33
1111,9,29
1112,7,26
1113,8,18
1114,7,18
1115,7,14
1116,7,14
1117,5,9
1118,3,12
1119,4,8
1120,0,13
1121,2,9
1122,4,7
1123,3,10
1124,1,13
1125,0,9
1126,0,12
1127,0,11
1128,1,15
1129,-2,12
1130,-1,13
1131,-1,15
1132,-2,16
1133,-4,14
1134,-2,13
1135,-2,15
1136,-2,14
1137,-2,12
1138,-1,12
1139,0,13
1140,0,11
1141,0,9
1142,0,8
1143,1,7
1144,0,8
1145,1,5
1146,4,7
1147,0,4
1148,2,5
1149,0,0
1150,2,7
1151,-1,8
1152,3,5
1153,0,4
1154,2,6
1155,0,6
1156,3,6
1157,8,14
1158,13,21
1159,13,27
1160,15,26
1161,17,13
1162,18,0
1163,17,-3
1164,20,-7
1165,20,-11
1166,18,-8
1167,11,-3
1168,2,-2
1169,-4,-4
1170,-8,1
1171,-8,0
1172,-12,0
1173,-10,-1
1174,-13,-1
1175,-11,-3
1176,-15,-1
1177,-10,-7
1178,-5,1
1179,-14,27
1180,-9,-2
1181,4,-47
1182,41,-112
1183,68,-173
1184,74,-210
1185,63,-215
1186,98,-189
1187,96,-131
1188,39,-66
1189,-4,-24
1190,-17,0
1191,-23,12
1192,-27,19
1193,-28,22
1194,-28,21
1195,-32,26
1196,-29,23
1197,-26,28
1198,-31,26
1199,-28,31
1200,-31,27
1201,-27,32
1202,-35,33
1203,-29,33
1204,-31,34
1205,-31,33
1206,-30,35
1207,-30,37
1208,-30,42
1209,-32,44
1210,-28,45
1211,-28,47
1212,-27,48
1213,-25,49
1214,-23,52
1215,-20,55
1216,-19,56
1217,-14,53
1218,-7,51
1219,-8,48
1220,-4,45
1221,-2,39
1222,-2,32
1223,-4,32
1224,2,24
1225,-2,25
1226,0,20
1227,-1,20
1228,-4,17
1229,-4,18
1230,-7,17
1231,-1,15
1232,-5,16
1233,-4,10
1234,-6,14
1235,-5,17
1236,-9,18
1237,-6,15
1238,-6,16
1239,-11,17
1240,-11,17
1241,-12,16
1242,-12,21
1243,-16,21
1244,-9,18
1245,-13,19
1246,-13,16
1247,-14,16
1248,-13,15
1249,-13,14
1250,-10,14
1251,-9,11
1252,-10,11
1253,-9,9
1254,-8,10
1255,-12,8
1256,-6,7
1257,-10,9
1258,-3,8
1259,-6,8
1260,-6,6
1261,-8,7
1262,-4,5
1263,-4,8
1264,-5,9
1265,0,9
1266,4,17
1267,3,26
1268,9,29
1269,11,24
1270,12,4
1271,11,0
1272,16,-7
1273,15,-7
1274,17,-8
1275,19,-6
1276,6,-5
1277,0,-2
1278,-7,-5
1279,-9,-2
