,0,1
0,-27,3
1,-28,2
2,-30,2
3,-28,1
4,-29,3
5,-25,3
6,-29,1
7,-27,0
8,-27,1
9,-27,2
10,-27,2
11,-24,1
12,-27,2
13,-25,2
14,-25,0
15,-28,1
16,-25,3
17,-25,2
18,-26,0
19,-27,0
20,-28,1
21,-29,1
22,-27,0
23,-28,0
24,-27,2
25,-28,0
26,-27,1
27,-29,2
28,-25,3
29,-29,2
30,-27,0
31,-30,0
32,-27,2
33,-30,1
34,-25,0
35,-28,0
36,-27,1
37,-29,0
38,-27,1
39,-25,2
40,-23,2
41,-24,1
42,-23,1
43,-25,1
44,-25,2
45,-23,2
46,-22,1
47,-20,1
48,-15,4
49,-14,9
50,-12,15
51,-7,16
52,-3,20
53,0,22
54,5,11
55,3,8
56,0,4
57,-4,3
58,-13,1
59,-18,3
60,-24,1
61,-28,2
62,-28,0
63,-27,0
64,-27,0
65,-28,0
66,-27,-1
67,-29,0
68,-26,0
69,-25,0
70,-24,0
71,-22,0
72,-27,0
73,-58,3
74,-42,2
75,11,0
76,136,0
77,167,1
78,102,-5
79,41,-18
80,5,-3
81,-4,0
82,-4,-11
83,-14,-4
84,-21,2
85,-24,6
86,-22,4
87,-24,6
88,-23,7
89,-24,6
90,-25,7
91,-23,8
92,-22,7
93,-23,8
94,-23,7
95,-21,7
96,-22,9
97,-17,8
98,-19,8
99,-18,8
100,-20,6
101,-18,8
102,-17,7
103,-14,7
104,-13,7
105,-12,7
106,-9,5
107,-9,9
108,-5,9
109,0,10
110,2,7
111,5,10
112,13,8
113,12,12
114,24,9
115,26,11
116,33,10
117,37,10
118,40,8
119,40,9
120,43,8
121,35,8
122,29,6
123,22,6
124,13,9
125,8,7
126,5,9
127,0,8
128,0,7
129,-4,8
130,-5,7
131,-5,7
132,-7,7
133,-7,8
134,-6,5
135,-9,7
136,-4,7
137,-6,8
138,-5,7
139,-6,6
140,-6,7
141,-8,8
142,-2,7
143,-4,6
144,-3,9
145,-2,6
146,-6,9
147,0,6
148,-4,8
149,0,7
150,-4,6
151,-1,7
152,-4,7
153,0,7
154,-2,5
155,-1,6
156,-4,6
157,-5,8
158,-2,5
159,-2,7
160,-1,5
161,-2,6
162,-4,6
163,-1,7
164,-2,7
165,-2,6
166,-3,4
167,-5,6
168,-2,6
169,-2,7
170,-3,5
171,-5,6
172,-4,5
173,-9,8
174,0,5
175,-5,6
176,0,7
177,-3,5
178,-5,7
179,-1,5
180,-3,7
181,-1,5
182,-4,5
183,-3,5
184,-3,8
185,-1,6
186,-3,5
187,-2,6
188,-1,4
189,1,8
190,7,10
191,8,17
192,10,20
193,13,23
194,14,26
195,23,21
196,20,14
197,16,9
198,13,5
199,0,8
200,3,8
201,-6,6
202,-7,5
203,-10,0
204,-14,5
205,-11,3
206,-11,2
207,-9,2
208,-12,3
209,-10,2
210,-12,3
211,-8,2
212,-9,3
213,-9,4
214,-29,2
215,-37,7
216,4,4
217,95,3
218,163,2
219,125,-3
220,63,-16
221,22,-15
222,10,-8
223,4,-10
224,0,-5
225,-9,4
226,-8,6
227,-11,5
228,-13,9
229,-11,6
230,-15,11
231,-8,9
232,-11,11
233,-8,10
234,-13,9
235,-10,10
236,-14,11
237,-7,12
238,-9,9
239,-9,11
240,-7,8
241,-10,12
242,-4,9
243,-6,10
244,-4,9
245,-5,9
246,-3,11
247,0,9
248,1,10
249,1,10
250,4,10
251,6,11
252,11,12
253,17,11
254,22,11
255,30,9
256,34,12
257,42,12
258,47,12
259,53,13
260,49,13
261,51,10
262,43,10
263,44,10
264,35,9
265,31,11
266,22,9
267,18,11
268,13,10
269,11,11
270,10,9
271,5,9
272,10,8
273,1,10
274,9,8
275,3,8
276,3,10
277,2,7
278,1,10
279,2,9
280,2,9
281,2,8
282,2,8
283,1,10
284,2,11
285,4,10
286,4,9
287,4,9
288,5,11
289,5,10
290,5,8
291,8,6
292,2,9
293,6,7
294,0,9
295,7,7
296,5,8
297,6,7
298,4,5
299,4,9
300,0,8
301,6,9
302,4,5
303,1,8
304,4,6
305,0,9
306,7,6
307,2,7
308,2,7
309,0,6
310,1,6
311,2,6
312,3,7
313,3,6
314,1,6
315,0,6
316,0,7
317,1,7
318,2,5
319,0,4
320,0,7
321,0,6
322,0,6
323,1,3
324,0,5
325,0,3
326,-2,5
327,1,5
328,1,6
329,2,5
330,0,4
331,3,5
332,1,7
333,11,17
334,8,15
335,15,19
336,20,22
337,21,26
338,31,15
339,26,12
340,23,8
341,14,7
342,6,7
343,1,7
344,0,7
345,-3,5
346,-6,2
347,-7,2
348,-8,2
349,-8,2
350,-4,0
351,-8,2
352,-1,1
353,-11,4
354,0,2
355,0,1
356,-14,2
357,-35,3
358,-11,2
359,74,0
360,177,0
361,153,2
362,79,-10
363,30,-9
364,6,6
365,12,-1
366,8,-5
367,3,0
368,0,3
369,-1,6
370,-1,4
371,-3,4
372,-7,6
373,-6,6
374,-10,7
375,-3,6
376,-7,7
377,-6,7
378,-9,5
379,-5,7
380,-10,6
381,-5,7
382,-8,4
383,-8,5
384,-8,2
385,-10,4
386,-5,3
387,-7,2
388,-4,2
389,-5,2
390,-3,0
391,0,0
392,5,0
393,4,0
394,8,-1
395,12,0
396,19,0
397,25,0
398,32,-3
399,35,-1
400,45,-2
401,42,0
402,53,0
403,49,0
404,43,0
405,37,-1
406,31,2
407,27,2
408,20,4
409,13,4
410,9,4
411,6,5
412,2,6
413,2,5
414,1,6
415,0,2
416,0,5
417,-1,5
418,0,4
419,0,3
420,-3,6
421,0,3
422,-4,5
423,0,3
424,-1,8
425,1,6
426,-2,2
427,-1,7
428,-1,4
429,0,7
430,0,3
431,0,5
432,2,4
433,0,7
434,3,2
435,0,3
436,2,4
437,0,4
438,0,4
439,2,2
440,3,4
441,1,3
442,1,2
443,0,2
444,0,4
445,1,3
446,1,2
447,1,2
448,2,3
449,0,3
450,1,3
451,3,1
452,0,4
453,0,0
454,-6,2
455,3,1
456,0,4
457,2,0
458,-2,0
459,0,0
460,-3,1
461,0,1
462,-1,0
463,0,0
464,-4,1
465,-4,1
466,-5,0
467,-4,0
468,-7,0
469,-7,0
470,-9,0
471,0,0
472,0,4
473,1,12
474,1,10
475,4,15
476,7,18
477,14,20
478,20,8
479,15,6
480,16,3
481,0,4
482,0,2
483,-10,3
484,-13,2
485,-17,0
486,-18,1
487,-17,0
488,-17,1
489,-17,-1
490,-20,0
491,-19,-1
492,-20,0
493,-18,0
494,-17,-1
495,-20,-1
496,-39,0
497,-46,0
498,-3,-1
499,111,-4
500,181,0
501,135,-2
502,60,-17
503,12,-11
504,-2,-2
505,0,-10
506,-7,-17
507,-15,-8
508,-23,-4
509,-21,-2
510,-21,-5
511,-26,-3
512,-21,-4
513,-29,-1
514,-21,-3
515,-25,-2
516,-23,-2
517,-27,-2
518,-25,-1
519,-23,-2
520,-22,-1
521,-24,-2
522,-22,-2
523,-25,-1
524,-21,-1
525,-22,-3
526,-20,-3
527,-18,-7
528,-18,0
529,-12,-3
530,-14,-5
531,-7,-4
532,-10,-4
533,-5,-3
534,0,-6
535,5,-4
536,11,-6
537,15,-6
538,22,-6
539,26,-4
540,36,-5
541,37,-3
542,42,-5
543,38,-6
544,36,-3
545,32,-3
546,25,-3
547,17,-2
548,11,0
549,4,0
550,3,0
551,0,0
552,-2,0
553,-1,-2
554,-10,0
555,0,-2
556,-8,0
557,-3,-1
558,-6,-2
559,-5,0
560,-2,0
561,-2,0
562,-2,-2
563,-3,0
564,-3,0
565,-2,0
566,0,-1
567,0,-1
568,1,-1
569,0,0
570,1,0
571,2,0
572,1,0
573,1,-2
574,0,0
575,2,0
576,1,0
577,3,-1
578,0,-1
579,0,0
580,-1,0
581,1,0
582,1,-2
583,0,0
584,2,-1
585,-1,0
586,2,-1
587,0,0
588,0,0
589,-2,0
590,-1,0
591,0,-1
592,0,0
593,0,-1
594,-2,-1
595,0,-2
596,0,0
597,0,-2
598,-1,-1
599,0,-1
600,-1,0
601,2,0
602,0,-1
603,0,0
604,0,-2
605,-2,0
606,3,-1
607,0,0
608,1,-1
609,0,0
610,0,0
611,3,0
612,6,0
613,10,7
614,11,11
615,14,14
616,19,18
617,24,18
618,26,10
619,28,3
620,21,3
621,18,2
622,10,1
623,7,2
624,1,2
625,0,1
626,-3,0
627,-3,1
628,-4,0
629,-8,0
630,-4,0
631,-11,0
632,-2,0
633,-8,0
634,-5,0
635,-4,-2
636,-8,0
637,-35,0
638,-32,1
639,14,-2
640,133,0
641,181,-1
642,113,-10
643,65,-29
644,19,-24
645,15,-14
646,8,-21
647,3,-10
648,-1,-2
649,-4,0
650,-6,0
651,-8,0
652,-10,0
653,-12,2
654,-9,1
655,-10,2
656,-10,2
657,-12,1
658,-12,2
659,-12,3
660,-12,3
661,-13,2
662,-12,2
663,-14,1
664,-11,3
665,-10,2
666,-9,2
667,-12,2
668,-11,2
669,-13,2
670,-8,1
671,-8,2
672,-3,3
673,-3,2
674,0,3
675,2,3
676,10,5
677,16,4
678,22,5
679,28,1
680,34,8
681,43,5
682,44,4
683,48,2
684,38,2
685,38,0
686,26,2
687,27,1
688,19,2
689,15,1
690,8,1
691,6,1
692,2,2
693,5,1
694,1,0
695,1,0
696,1,0
697,1,1
698,0,1
699,1,0
700,-1,1
701,0,0
702,-3,0
703,0,0
704,0,2
705,1,0
706,-3,0
707,0,0
708,-6,2
709,1,0
710,-2,0
711,0,1
712,-2,0
713,-1,2
714,-1,1
715,0,0
716,-1,0
717,-1,0
718,-1,0
719,0,0
720,1,0
721,1,0
722,0,0
723,0,0
724,0,0
725,-1,0
726,1,0
727,0,0
728,0,0
729,0,0
730,-2,0
731,1,-1
732,0,0
733,0,-1
734,0,-3
735,-1,0
736,0,0
737,3,0
738,0,-2
739,0,0
740,0,-2
741,-5,0
742,1,-2
743,-1,0
744,1,-1
745,0,-1
746,1,-3
747,-3,0
748,2,-1
749,-1,-1
750,0,-2
751,0,-2
752,0,-1
753,-3,0
754,1,0
755,0,0
756,5,0
757,8,3
758,9,11
759,14,13
760,19,15
761,20,18
762,26,11
763,27,7
764,25,3
765,21,3
766,12,0
767,5,3
768,2,2
769,-3,4
770,-1,0
771,-2,1
772,-4,0
773,-5,0
774,-3,-2
775,-8,0
776,0,0
777,-4,0
778,-3,-1
779,-3,-2
780,-6,0
781,-28,0
782,-29,1
783,4,1
784,91,0
785,161,-2
786,135,-6
787,69,-21
788,31,-21
789,10,-12
790,11,-15
791,3,-12
792,-2,-3
793,-4,-1
794,-5,0
795,-6,0
796,-8,0
797,-9,0
798,-10,1
799,-7,1
800,-6,2
801,-8,2
802,-8,0
803,-11,1
804,-9,2
805,-10,2
806,-9,0
807,-11,2
808,-7,0
809,-13,3
810,-6,1
811,-10,1
812,-6,0
813,-9,1
814,-4,0
815,-9,1
816,0,0
817,0,0
818,2,0
819,5,0
820,9,1
821,15,1
822,24,2
823,30,0
824,36,3
825,41,0
826,42,2
827,44,0
828,45,0
829,39,-1
830,34,-1
831,27,-2
832,20,1
833,18,0
834,11,0
835,8,0
836,3,1
837,1,0
838,1,0
839,2,0
840,0,1
841,0,0
842,0,0
843,-2,0
844,0,0
845,-2,0
846,-1,1
847,-3,1
848,-2,2
849,-2,4
850,-1,3
851,-1,5
852,-3,6
853,-2,5
854,-3,5
855,-2,6
856,1,7
857,0,6
858,-3,8
859,0,5
860,-6,8
861,0,7
862,0,7
863,0,7
864,-1,7
865,-1,6
866,-5,8
867,0,7
868,-3,9
869,0,7
870,-2,7
871,-2,7
872,-2,7
873,-1,6
874,-1,6
875,-1,7
876,-4,6
877,-5,8
878,-2,7
879,-3,6
880,-5,8
881,-4,5
882,-6,6
883,-1,7
884,-4,7
885,-1,5
886,-5,5
887,-3,6
888,-6,7
889,0,7
890,-8,6
891,-1,4
892,-8,7
893,-3,6
894,-8,5
895,0,5
896,-4,7
897,-3,5
898,-3,4
899,0,5
900,4,11
901,6,18
902,6,19
903,9,22
904,14,24
905,20,27
906,26,17
907,24,13
908,17,10
909,7,8
910,0,8
911,-2,8
912,-6,6
913,-7,6
914,-8,3
915,-9,3
916,-12,2
917,-10,3
918,-10,1
919,-13,2
920,-7,2
921,-11,4
922,-7,1
923,-4,4
924,-25,3
925,-41,3
926,-13,1
927,72,3
928,190,-2
929,152,9
930,84,-10
931,17,-10
932,-2,10
933,3,2
934,1,-5
935,-7,0
936,-12,5
937,-12,4
938,-16,7
939,-13,5
940,-15,6
941,-15,6
942,-16,7
943,-17,7
944,-17,7
945,-14,6
946,-17,6
947,-17,6
948,-18,7
949,-17,7
950,-17,7
951,-14,6
952,-14,5
953,-11,4
954,-15,4
955,-11,3
956,-11,4
957,-8,3
958,-10,2
959,-6,1
960,-5,2
961,0,2
962,0,0
963,6,0
964,10,-2
965,14,0
966,26,-3
967,29,-1
968,39,0
969,39,0
970,43,-3
971,38,2
972,39,0
973,30,1
974,27,1
975,16,4
976,12,8
977,4,5
978,2,6
979,-1,6
980,-5,7
981,-7,7
982,-7,7
983,-6,6
984,-8,7
985,-7,7
986,-10,7
987,-9,7
988,-11,7
989,-8,7
990,-10,7
991,-9,6
992,-13,8
993,-9,8
994,-7,7
995,-6,8
996,-7,8
997,-8,7
998,-7,7
999,-4,7
1000,-2,7
1001,-7,8
1002,-6,5
1003,-9,8
1004,-2,8
1005,-5,6
1006,-4,6
1007,-7,6
1008,-4,7
1009,-5,7
1010,-1,7
1011,-4,4
1012,-7,8
1013,-6,3
1014,-10,7
1015,-3,5
1016,-6,7
1017,-4,6
1018,-9,4
1019,-6,6
1020,-8,7
1021,-5,7
1022,-7,4
1023,-6,5
1024,-6,4
1025,-7,7
1026,-4,4
1027,-7,5
1028,-6,4
1029,-7,2
1030,-7,3
1031,-9,4
1032,-4,6
1033,-7,4
1034,-8,5
1035,-7,4
1036,-7,5
1037,-3,4
1038,1,8
1039,1,14
1040,4,16
1041,6,20
1042,11,25
1043,19,22
1044,23,16
1045,21,9
1046,14,8
1047,3,6
1048,4,6
1049,-1,5
1050,-6,4
1051,-9,1
1052,-14,3
1053,-14,1
1054,-8,1
1055,-13,0
1056,-11,2
1057,-11,0
1058,-14,3
1059,-11,0
1060,-12,3
1061,-11,0
1062,-27,1
1063,-40,2
1064,-12,3
1065,82,0
1066,181,2
1067,165,4
1068,87,-6
1069,23,-5
1070,3,3
1071,1,-1
1072,1,-5
1073,-8,0
1074,-11,2
1075,-17,4
1076,-15,6
1077,-17,6
1078,-17,6
1079,-18,4
1080,-16,8
1081,-21,6
1082,-16,7
1083,-19,7
1084,-19,7
1085,-21,7
1086,-19,7
1087,-20,7
1088,-15,7
1089,-18,5
1090,-16,6
1091,-16,3
1092,-16,5
1093,-13,4
1094,-11,3
1095,-12,3
1096,-9,2
1097,-8,1
1098,-8,4
1099,-2,3
1100,-1,3
1101,2,2
1102,9,1
1103,14,2
1104,22,3
1105,32,3
1106,36,2
1107,40,3
1108,40,1
1109,41,4
1110,36,2
1111,36,4
1112,26,5
1113,22,7
1114,14,6
1115,9,7
1116,5,8
1117,6,8
1118,2,7
1119,0,7
1120,0,6
1121,-1,8
1122,-2,7
1123,0,7
1124,-3,7
1125,-4,7
1126,-4,6
1127,-5,7
1128,-2,8
1129,-1,7
1130,-1,7
1131,-2,6
1132,-2,7
1133,-4,8
1134,0,7
1135,0,7
1136,1,7
1137,0,6
1138,0,7
1139,-1,7
1140,1,7
1141,0,8
1142,0,6
1143,-1,5
1144,2,8
1145,-3,7
1146,3,7
1147,0,7
1148,0,8
1149,-1,5
1150,0,6
1151,-2,7
1152,2,6
1153,0,7
1154,0,6
1155,0,5
1156,-1,7
1157,-2,7
1158,1,5
1159,0,7
1160,0,5
1161,0,6
1162,-1,7
1163,0,6
1164,0,6
1165,-1,6
1166,0,6
1167,0,5
1168,-1,7
1169,0,8
1170,0,6
1171,0,6
1172,0,5
1173,0,5
1174,-4,6
1175,4,4
1176,6,7
1177,11,13
1178,9,16
1179,15,22
1180,12,23
1181,26,27
1182,25,16
1183,29,11
1184,24,8
1185,19,7
1186,9,6
1187,8,7
1188,0,6
1189,-2,4
1190,-2,1
1191,-5,2
1192,-4,2
1193,-2,2
1194,-4,1
1195,-4,0
1196,-5,2
1197,-7,3
1198,-1,0
1199,-1,1
1200,0,1
1201,-25,2
1202,-31,4
1203,0,2
1204,100,4
1205,178,0
1206,139,-1
1207,78,-26
1208,28,-22
1209,16,-8
1210,12,-15
1211,5,-6
1212,-6,2
1213,-5,4
1214,-10,7
1215,-7,6
1216,-8,9
1217,-8,6
1218,-12,8
1219,-11,7
1220,-14,11
1221,-9,8
1222,-13,8
1223,-11,8
1224,-12,9
1225,-13,9
1226,-13,11
1227,-10,9
1228,-11,10
1229,-13,8
1230,-12,8
1231,-13,9
1232,-7,9
1233,-8,8
1234,-8,9
1235,-7,8
1236,-9,11
1237,-5,9
1238,0,9
1239,4,11
1240,8,13
1241,16,10
1242,16,13
1243,30,10
1244,32,12
1245,39,11
1246,40,9
1247,44,9
1248,40,8
1249,40,7
1250,30,6
1251,25,6
1252,17,7
1253,11,8
1254,8,8
1255,5,7
1256,1,6
1257,0,6
1258,-4,7
1259,0,6
1260,-6,7
1261,0,5
1262,-5,6
1263,-4,3
1264,-6,8
1265,0,6
1266,-5,5
1267,-2,6
1268,-3,6
1269,-6,6
1270,-3,6
1271,-3,6
1272,-2,6
1273,-2,6
1274,-4,7
1275,-1,6
1276,-2,6
1277,-2,7
1278,-2,4
1279,-2,5
