,0,1
0,-3,-11
1,-6,-10
2,-1,-10
3,-6,-12
4,-3,-11
5,-6,-10
6,-5,-11
7,-6,-8
8,-2,-12
9,-5,-10
10,-6,-13
11,-6,-12
12,-6,-11
13,-2,-6
14,5,-4
15,9,-4
16,9,-4
17,11,0
18,9,3
19,6,-2
20,1,-1
21,-1,0
22,-2,-2
23,-2,-3
24,-2,-5
25,-6,-6
26,-1,-12
27,-11,-14
28,-3,-10
29,-11,-13
30,-5,-40
31,7,-7
32,54,54
33,99,215
34,108,197
35,3,22
36,-70,-33
37,-95,-36
38,-70,-23
39,-34,-15
40,-20,-14
41,-12,-12
42,-14,-14
43,-10,-14
44,-10,-14
45,-5,-13
46,-9,-13
47,-6,-14
48,-7,-15
49,-7,-12
50,-7,-12
51,-3,-13
52,-5,-13
53,-5,-12
54,-6,-12
55,-3,-14
56,-5,-11
57,-1,-11
58,-1,-11
59,-2,-11
60,-1,-11
61,0,-12
62,-2,-8
63,2,-10
64,3,-7
65,2,-7
66,3,-4
67,3,-4
68,7,-2
69,3,-1
70,12,0
71,9,2
72,12,2
73,9,5
74,15,5
75,11,12
76,16,12
77,19,18
78,15,15
79,14,17
80,10,12
81,10,11
82,2,7
83,7,2
84,1,-2
85,0,-2
86,-3,-3
87,-2,-7
88,-6,-7
89,-3,-8
90,-2,-8
91,-6,-10
92,-2,-11
93,-3,-10
94,-5,-8
95,-6,-8
96,1,-8
97,-3,-8
98,-1,-8
99,-2,-8
100,-2,-10
101,-3,-5
102,-1,-7
103,-1,-6
104,-3,-7
105,-2,-7
106,-5,-7
107,-5,-8
108,-6,-8
109,-1,-7
110,-5,-8
111,-6,-10
112,-7,-11
113,-9,-11
114,-10,-8
115,-6,-12
116,-7,-10
117,-9,-12
118,-9,-11
119,-10,-13
120,-10,-10
121,-10,-12
122,-7,-11
123,-10,-13
124,-9,-11
125,-11,-13
126,-10,-11
127,-14,-11
128,-6,-12
129,-12,-11
130,-9,-13
131,-11,-13
132,-10,-12
133,-10,-6
134,0,-5
135,3,-4
136,3,-5
137,5,0
138,5,1
139,-2,-3
140,-6,-3
141,-6,-2
142,-10,-3
143,-10,-5
144,-7,-6
145,-12,-6
146,-12,-13
147,-14,-14
148,-15,-13
149,-18,-16
150,-14,-35
151,5,-16
152,33,51
153,100,207
154,94,202
155,0,42
156,-89,-32
157,-113,-41
158,-86,-16
159,-41,-15
160,-30,-14
161,-24,-14
162,-23,-13
163,-21,-17
164,-20,-14
165,-19,-14
166,-16,-14
167,-18,-14
168,-16,-15
169,-16,-14
170,-18,-13
171,-18,-13
172,-12,-15
173,-14,-13
174,-14,-13
175,-14,-13
176,-14,-13
177,-12,-8
178,-10,-10
179,-7,-11
180,-10,-10
181,-6,-8
182,-7,-10
183,-7,-7
184,-5,-5
185,-2,-5
186,-1,-4
187,-2,-4
188,1,-3
189,-1,1
190,5,1
191,6,2
192,7,3
193,6,5
194,10,5
195,7,10
196,9,12
197,12,14
198,7,13
199,6,11
200,1,7
201,3,5
202,-5,3
203,3,-1
204,-3,-4
205,-2,-4
206,-5,-8
207,-3,-7
208,-7,-8
209,-1,-8
210,-5,-10
211,-3,-12
212,-3,-12
213,-3,-12
214,-6,-8
215,-1,-12
216,0,-11
217,-2,-11
218,-1,-11
219,0,-11
220,0,-7
221,2,-7
222,2,-10
223,0,-11
224,0,-11
225,-1,-10
226,-3,-11
227,1,-13
228,-2,-12
229,0,-12
230,-3,-12
231,-1,-14
232,-7,-11
233,1,-13
234,-5,-13
235,0,-14
236,-7,-14
237,-1,-14
238,-9,-12
239,1,-15
240,-5,-13
241,-1,-15
242,-6,-13
243,-1,-15
244,-7,-12
245,-1,-15
246,-5,-13
247,-2,-16
248,-5,-15
249,-3,-15
250,-6,-14
251,-2,-16
252,-2,-14
253,0,-10
254,6,-7
255,10,-7
256,9,-5
257,12,-2
258,11,-2
259,3,-7
260,-2,-10
261,-5,-4
262,-2,-8
263,-1,-6
264,-1,-8
265,-5,-11
266,-3,-18
267,-14,-15
268,-3,-15
269,-10,-20
270,-1,-44
271,14,-12
272,59,51
273,110,227
274,105,193
275,-2,23
276,-90,-41
277,-109,-37
278,-67,-22
279,-37,-16
280,-18,-18
281,-12,-15
282,-11,-17
283,-11,-17
284,-9,-18
285,-9,-16
286,-3,-16
287,-5,-17
288,-6,-16
289,-5,-17
290,-5,-15
291,-5,-16
292,-2,-17
293,-1,-14
294,-1,-14
295,-1,-15
296,-3,-15
297,1,-14
298,1,-14
299,2,-14
300,2,-13
301,3,-11
302,0,-8
303,7,-10
304,6,-7
305,10,-6
306,7,-5
307,12,-4
308,7,-2
309,19,-2
310,15,2
311,18,1
312,15,3
313,20,7
314,16,7
315,27,12
316,19,13
317,23,17
318,18,16
319,16,15
320,12,8
321,11,8
322,7,3
323,5,0
324,2,-3
325,0,-1
326,1,-5
327,1,-6
328,0,-8
329,-2,-7
330,-3,-10
331,-5,-10
332,-1,-12
333,-1,-8
334,-2,-10
335,-3,-12
336,-3,-11
337,-2,-10
338,0,-11
339,-1,-11
340,-2,-12
341,-2,-8
342,-5,-10
343,-1,-11
344,-2,-11
345,-2,-8
346,-3,-11
347,-5,-8
348,-5,-10
349,-2,-8
350,-2,-11
351,-7,-10
352,-5,-13
353,-12,-8
354,-1,-11
355,-7,-11
356,-6,-14
357,-11,-12
358,-7,-15
359,-14,-10
360,-5,-14
361,-10,-12
362,-9,-14
363,-11,-14
364,-9,-16
365,-11,-14
366,-7,-13
367,-10,-14
368,-10,-14
369,-9,-15
370,-11,-13
371,-9,-14
372,-7,-14
373,-6,-12
374,-2,-10
375,1,-6
376,2,-6
377,5,-3
378,5,1
379,3,-2
380,-1,-4
381,-10,-3
382,-6,-3
383,-7,-6
384,-7,-4
385,-9,-7
386,-10,-12
387,-15,-14
388,-12,-14
389,-15,-11
390,-15,-23
391,-7,-35
392,14,3
393,47,93
394,109,243
395,72,145
396,-32,2
397,-87,-42
398,-105,-35
399,-63,-21
400,-39,-15
401,-23,-15
402,-25,-14
403,-20,-17
404,-24,-16
405,-15,-15
406,-19,-15
407,-16,-15
408,-16,-16
409,-18,-14
410,-16,-13
411,-12,-14
412,-16,-14
413,-15,-14
414,-15,-15
415,-16,-14
416,-11,-15
417,-11,-12
418,-11,-13
419,-12,-15
420,-12,-13
421,-10,-11
422,-9,-10
423,-6,-10
424,-7,-8
425,-6,-8
426,-7,-6
427,-3,-6
428,-2,-4
429,-1,-3
430,-1,-1
431,3,1
432,0,1
433,7,4
434,2,4
435,7,7
436,3,10
437,9,15
438,2,16
439,12,16
440,3,13
441,2,11
442,-2,5
443,-3,2
444,-7,-2
445,-3,-2
446,-10,-5
447,-9,-7
448,-11,-8
449,-11,-8
450,-10,-8
451,-9,-12
452,-10,-11
453,-10,-11
454,-10,-11
455,-11,-11
456,-7,-11
457,-9,-10
458,-6,-8
459,-10,-10
460,-7,-8
461,-12,-7
462,-3,-8
463,-10,-7
464,-7,-8
465,-10,-10
466,-7,-7
467,-15,-10
468,-6,-8
469,-12,-11
470,-9,-11
471,-14,-11
472,-10,-13
473,-19,-8
474,-6,-13
475,-15,-11
476,-10,-14
477,-16,-13
478,-12,-13
479,-18,-12
480,-10,-15
481,-15,-12
482,-15,-13
483,-15,-14
484,-14,-14
485,-16,-11
486,-11,-13
487,-15,-13
488,-12,-14
489,-14,-13
490,-15,-14
491,-14,-11
492,-9,-10
493,-5,-7
494,-2,-4
495,1,-6
496,1,-1
497,3,2
498,1,0
499,-5,-4
500,-10,-3
501,-10,-5
502,-11,-3
503,-11,-4
504,-6,-4
505,-11,-7
506,-14,-13
507,-18,-17
508,-15,-11
509,-20,-17
510,-7,-42
511,6,-5
512,50,64
513,104,239
514,99,199
515,-15,25
516,-89,-42
517,-118,-37
518,-72,-17
519,-45,-15
520,-25,-15
521,-28,-12
522,-16,-16
523,-20,-15
524,-16,-15
525,-18,-15
526,-18,-14
527,-19,-14
528,-16,-14
529,-15,-14
530,-16,-14
531,-16,-15
532,-16,-15
533,-16,-13
534,-11,-14
535,-11,-14
536,-11,-13
537,-12,-13
538,-9,-14
539,-12,-12
540,-6,-13
541,-9,-11
542,-5,-12
543,-6,-10
544,-3,-11
545,-6,-5
546,0,-6
547,0,-5
548,1,-4
549,2,-2
550,3,-4
551,3,2
552,3,1
553,11,4
554,7,4
555,11,6
556,7,10
557,10,13
558,6,12
559,9,11
560,2,6
561,1,5
562,-2,1
563,-2,-2
564,-11,-2
565,-1,-6
566,-10,-6
567,-9,-8
568,-10,-8
569,-7,-10
570,-14,-6
571,-6,-11
572,-10,-10
573,-7,-10
574,-10,-8
575,-6,-11
576,-11,-8
577,-5,-8
578,-3,-8
579,-6,-8
580,-5,-8
581,-6,-10
582,-7,-6
583,-7,-7
584,-2,-8
585,-7,-7
586,-7,-8
587,-9,-8
588,-7,-8
589,-10,-7
590,-5,-8
591,-9,-10
592,-9,-10
593,-10,-8
594,-10,-8
595,-9,-8
596,-9,-10
597,-9,-10
598,-11,-10
599,-9,-13
600,-12,-11
601,-10,-11
602,-10,-10
603,-9,-12
604,-10,-11
605,-10,-12
606,-12,-11
607,-10,-10
608,-9,-12
609,-10,-10
610,-9,-11
611,-11,-15
612,-9,-11
613,-11,-8
614,0,-7
615,-1,-3
616,10,-4
617,1,-2
618,6,2
619,-1,3
620,3,-4
621,-10,-3
622,-3,-1
623,-11,-4
624,-5,-5
625,-12,-3
626,-5,-7
627,-10,-11
628,-11,-14
629,-14,-12
630,-14,-22
631,-7,-32
632,18,2
633,61,97
634,103,223
635,79,164
636,-24,12
637,-95,-34
638,-105,-32
639,-68,-16
640,-37,-13
641,-24,-10
642,-18,-14
643,-19,-13
644,-15,-13
645,-11,-12
646,-15,-12
647,-12,-14
648,-14,-13
649,-14,-12
650,-11,-11
651,-10,-12
652,-11,-11
653,-10,-10
654,-10,-12
655,-11,-11
656,-7,-11
657,-5,-10
658,-5,-10
659,-6,-10
660,-2,-11
661,-5,-7
662,-2,-10
663,0,-10
664,1,-8
665,0,-6
666,2,-10
667,1,-6
668,3,-5
669,7,-4
670,9,-3
671,9,-1
672,11,0
673,9,4
674,11,5
675,16,7
676,16,10
677,18,17
678,16,16
679,20,16
680,12,16
681,16,13
682,7,11
683,10,5
684,3,2
685,5,1
686,-3,0
687,6,-2
688,-2,-3
689,0,-5
690,-3,-5
691,-1,-7
692,-5,-6
693,2,-6
694,-1,-8
695,-1,-8
696,-1,-10
697,-1,-7
698,-2,-5
699,2,-8
700,1,-7
701,1,-6
702,0,-7
703,0,-8
704,0,-6
705,1,-6
706,0,-5
707,-1,-7
708,-1,-10
709,-2,-7
710,-3,-6
711,-1,-8
712,-3,-8
713,-2,-7
714,-5,-8
715,-3,-7
716,-5,-8
717,0,-7
718,-2,-8
719,-2,-8
720,-3,-11
721,-3,-8
722,-5,-7
723,-1,-8
724,-5,-11
725,-1,-7
726,-6,-8
727,-2,-10
728,-9,-8
729,0,-8
730,-5,-7
731,-2,-10
732,-6,-10
733,-3,-7
734,-5,-4
735,7,-3
736,6,0
737,11,-3
738,7,2
739,14,4
740,2,2
741,3,1
742,-3,3
743,-1,-1
744,-5,-2
745,-1,-1
746,-9,-4
747,-1,-10
748,-10,-11
749,-5,-11
750,-12,-10
751,-7,-34
752,0,-21
753,41,31
754,77,193
755,122,231
756,19,36
757,-64,-30
758,-98,-38
759,-73,-24
760,-45,-16
761,-23,-13
762,-19,-13
763,-14,-12
764,-18,-12
765,-7,-11
766,-15,-12
767,-11,-12
768,-12,-15
769,-12,-11
770,-14,-11
771,-10,-10
772,-10,-12
773,-9,-10
774,-10,-11
775,-10,-11
776,-10,-11
777,-5,-7
778,-7,-8
779,-5,-8
780,-6,-11
781,-6,-7
782,-2,-10
783,-3,-7
784,-1,-7
785,-2,-6
786,-2,-6
787,-2,-6
788,3,-6
789,3,-5
790,2,-4
791,3,-2
792,5,1
793,7,3
794,11,5
795,9,10
796,11,11
797,12,17
798,11,21
799,15,22
800,18,20
801,12,17
802,10,12
803,5,8
804,3,6
805,3,3
806,0,-1
807,-1,-2
808,-2,-6
809,-3,-7
810,-5,-6
811,-2,-7
812,-3,-10
813,-3,-5
814,-3,-10
815,-5,-6
816,-2,-8
817,0,-5
818,-1,-7
819,0,-3
820,7,0
821,6,5
822,11,3
823,16,13
824,21,12
825,20,20
826,25,18
827,16,15
828,15,1
829,0,-2
830,-2,-10
831,-9,-8
832,-9,-13
833,-12,-7
834,-7,-12
835,-9,-34
836,6,-22
837,38,54
838,83,187
839,95,196
840,11,35
841,-70,-23
842,-79,-26
843,-59,-12
844,-33,-10
845,-23,-8
846,-16,-10
847,-14,-13
848,-15,-14
849,-15,-14
850,-18,-13
851,-15,-13
852,-11,-14
853,-14,-13
854,-12,-12
855,-15,-14
856,-11,-14
857,-18,-12
858,-9,-13
859,-15,-12
860,-10,-14
861,-14,-13
862,-9,-12
863,-15,-10
864,-3,-13
865,-10,-8
866,-5,-10
867,-6,-7
868,-5,-8
869,-3,-3
870,-1,-3
871,2,-3
872,2,-2
873,5,1
874,2,1
875,7,3
876,5,5
877,11,6
878,7,7
879,10,8
880,9,11
881,11,13
882,6,13
883,7,7
884,5,5
885,0,2
886,-2,-1
887,-3,-5
888,-5,-3
889,-3,-4
890,-3,-6
891,-6,-8
892,-6,-8
893,-6,-8
894,-7,-8
895,-5,-8
896,-3,-7
897,-3,-8
898,-5,-10
899,-5,-11
900,-5,-8
901,-5,-8
902,-3,-7
903,-3,-10
904,-2,-7
905,-6,-8
906,-1,-10
907,-7,-7
908,0,-10
909,-5,-7
910,-1,-10
911,-7,-8
912,-3,-12
913,-10,-6
914,-5,-8
915,-2,-10
916,-9,-12
917,-3,-8
918,-10,-11
919,-6,-10
920,-10,-11
921,-2,-8
922,-9,-10
923,-6,-8
924,-9,-12
925,-7,-11
926,-11,-8
927,-6,-11
928,-7,-10
929,-9,-12
930,-7,-11
931,-9,-12
932,-10,-11
933,-9,-10
934,-6,-10
935,-9,-12
936,-9,-11
937,-9,-13
938,-10,-11
939,-9,-12
940,-5,-11
941,-7,-12
942,-6,-12
943,-6,-13
944,0,-6
945,1,-1
946,10,0
947,11,6
948,19,7
949,18,13
950,20,11
951,14,8
952,5,-2
953,1,-6
954,-10,-14
955,-9,-14
956,-11,-16
957,-9,-10
958,-15,-23
959,-1,-38
960,19,2
961,70,100
962,117,243
963,79,163
964,-29,13
965,-103,-33
966,-96,-24
967,-59,-12
968,-33,-12
969,-23,-13
970,-18,-13
971,-19,-13
972,-11,-14
973,-14,-14
974,-11,-14
975,-15,-14
976,-12,-15
977,-15,-12
978,-11,-13
979,-10,-13
980,-11,-13
981,-11,-13
982,-11,-15
983,-14,-13
984,-14,-13
985,-10,-12
986,-10,-13
987,-10,-13
988,-10,-13
989,-10,-12
990,-12,-12
991,-3,-13
992,-7,-11
993,-2,-11
994,-5,-8
995,-1,-12
996,-2,-6
997,1,-7
998,7,-5
999,5,-4
1000,10,-2
1001,7,1
1002,11,3
1003,11,5
1004,19,8
1005,18,13
1006,18,16
1007,16,15
1008,14,13
1009,11,12
1010,10,8
1011,6,5
1012,5,2
1013,1,2
1014,2,-1
1015,-2,-1
1016,1,-2
1017,0,-2
1018,1,-2
1019,-1,-3
1020,0,-5
1021,-2,-2
1022,0,-3
1023,6,-4
1024,0,-3
1025,2,-2
1026,0,-3
1027,2,-4
1028,0,-2
1029,5,-4
1030,2,-3
1031,2,-5
1032,0,-5
1033,0,-5
1034,-2,-4
1035,0,-3
1036,1,-4
1037,-1,-3
1038,-2,-4
1039,-2,-6
1040,-5,-4
1041,-2,-6
1042,-2,-5
1043,-2,-6
1044,-3,-6
1045,-5,-7
1046,-2,-6
1047,-7,-6
1048,-1,-7
1049,-6,-7
1050,-1,-8
1051,-9,-8
1052,-1,-10
1053,-10,-5
1054,-2,-6
1055,-3,-7
1056,-5,-8
1057,-3,-7
1058,-6,-10
1059,-6,-7
1060,-7,-7
1061,-1,-8
1062,-7,-6
1063,-2,-6
1064,-9,-12
1065,-6,-11
1066,-10,-7
1067,-3,-10
1068,-5,-10
1069,-7,-7
1070,-7,-8
1071,-7,-10
1072,-9,-8
1073,-5,-7
1074,-3,-10
1075,-5,-11
1076,-5,-8
1077,1,-3
1078,3,0
1079,6,3
1080,16,6
1081,16,12
1082,19,13
1083,19,11
1084,11,6
1085,0,0
1086,-1,-6
1087,-7,-12
1088,-9,-12
1089,-11,-12
1090,-10,-11
1091,-15,-31
1092,7,-25
1093,34,28
1094,79,182
1095,117,242
1096,32,66
1097,-61,-21
1098,-95,-38
1099,-81,-24
1100,-47,-14
1101,-24,-8
1102,-19,-12
1103,-16,-11
1104,-18,-12
1105,-9,-11
1106,-12,-11
1107,-10,-11
1108,-12,-13
1109,-11,-11
1110,-12,-8
1111,-10,-10
1112,-10,-11
1113,-9,-11
1114,-10,-13
1115,-11,-12
1116,-10,-8
1117,-9,-8
1118,-10,-10
1119,-9,-13
1120,-10,-12
1121,-9,-8
1122,-12,-8
1123,-5,-11
1124,-6,-8
1125,-3,-10
1126,-3,-7
1127,-2,-11
1128,-5,-5
1129,1,-5
1130,3,-4
1131,2,-4
1132,5,-3
1133,3,-2
1134,5,2
1135,6,3
1136,12,6
1137,11,12
1138,14,14
1139,14,17
1140,11,17
1141,10,16
1142,12,14
1143,9,10
1144,5,6
1145,2,3
1146,-1,2
1147,-1,-1
1148,-1,-5
1149,-2,-5
1150,-2,-6
1151,-5,-11
1152,-7,-8
1153,-5,-8
1154,-2,-7
1155,-3,-8
1156,-3,-10
1157,-3,-8
1158,-3,-6
1159,-6,-6
1160,2,-8
1161,-6,-6
1162,0,-7
1163,-2,-7
1164,-1,-5
1165,-6,-6
1166,1,-4
1167,-3,-5
1168,-2,-10
1169,-3,-7
1170,-3,-6
1171,-6,-5
1172,-1,-8
1173,-6,-5
1174,-3,-7
1175,-6,-10
1176,-5,-8
1177,-7,-7
1178,-1,-8
1179,-6,-8
1180,-6,-8
1181,-6,-8
1182,-7,-7
1183,-6,-7
1184,-6,-8
1185,-6,-8
1186,-7,-8
1187,-6,-10
1188,-9,-6
1189,-3,-7
1190,-6,-7
1191,-3,-8
1192,-7,-7
1193,-6,-10
1194,-11,-7
1195,-2,-10
1196,-9,-8
1197,-6,-8
1198,-9,-8
1199,-7,-8
1200,-11,-8
1201,-2,-7
1202,-9,-8
1203,-3,-7
1204,-10,-10
1205,-3,-8
1206,-11,-7
1207,0,-11
1208,-5,-7
1209,5,0
1210,6,-1
1211,11,6
1212,16,11
1213,20,10
1214,18,12
1215,20,11
1216,12,4
1217,1,-1
1218,-2,-6
1219,-2,-11
1220,-7,-10
1221,-7,-7
1222,-9,-13
1223,-5,-28
1224,16,-5
1225,46,64
1226,95,199
1227,100,195
1228,16,51
1229,-60,-24
1230,-83,-33
1231,-68,-21
1232,-37,-12
1233,-21,-12
1234,-16,-8
1235,-18,-12
1236,-9,-11
1237,-12,-11
1238,-7,-10
1239,-14,-12
1240,-7,-11
1241,-18,-7
1242,-3,-10
1243,-11,-10
1244,-7,-11
1245,-12,-8
1246,-9,-11
1247,-14,-10
1248,-5,-10
1249,-11,-8
1250,-7,-10
1251,-10,-10
1252,-10,-11
1253,-12,-7
1254,-3,-8
1255,-6,-8
1256,-5,-8
1257,-3,-7
1258,-5,-8
1259,-3,-5
1260,2,-6
1261,2,-3
1262,3,-3
1263,5,-3
1264,3,-2
1265,6,1
1266,10,1
1267,11,2
1268,12,3
1269,15,5
1270,15,10
1271,14,12
1272,16,12
1273,14,10
1274,11,10
1275,9,5
1276,5,4
1277,2,2
1278,6,0
1279,1,-3
