,0,1
0,23,-41
1,17,-40
2,17,-44
3,19,-43
4,18,-41
5,21,-43
6,21,-46
7,14,-45
8,26,-43
9,58,-39
10,136,-29
11,228,29
12,320,74
13,271,10
14,214,-88
15,174,-106
16,88,-71
17,25,-45
18,15,-46
19,-1,-41
20,7,-40
21,-2,-41
22,2,-40
23,-2,-39
24,1,-39
25,0,-37
26,5,-39
27,2,-38
28,3,-37
29,3,-35
30,3,-37
31,2,-36
32,3,-35
33,2,-35
34,2,-35
35,2,-34
36,5,-31
37,9,-31
38,8,-31
39,9,-29
40,11,-29
41,14,-31
42,9,-29
43,16,-31
44,14,-30
45,17,-29
46,15,-25
47,16,-25
48,11,-22
49,19,-25
50,17,-24
51,24,-26
52,16,-25
53,16,-22
54,15,-23
55,17,-20
56,12,-20
57,15,-19
58,10,-18
59,11,-19
60,10,-20
61,10,-19
62,7,-16
63,7,-17
64,4,-13
65,4,-16
66,3,-18
67,3,-23
68,3,-22
69,3,-29
70,0,-29
71,8,-33
72,9,-31
73,11,-34
74,12,-34
75,16,-37
76,15,-31
77,22,-32
78,19,-33
79,21,-33
80,21,-31
81,21,-32
82,21,-30
83,22,-30
84,21,-26
85,21,-29
86,18,-30
87,15,-27
88,21,-26
89,17,-29
90,17,-27
91,16,-31
92,12,-31
93,14,-31
94,14,-31
95,16,-32
96,10,-30
97,10,-34
98,5,-33
99,14,-31
100,9,-32
101,10,-32
102,9,-33
103,9,-36
104,8,-31
105,10,-31
106,9,-29
107,9,-33
108,9,-33
109,7,-29
110,7,-30
111,9,-32
112,5,-29
113,7,-29
114,5,-27
115,4,-31
116,4,-27
117,5,-30
118,2,-30
119,7,-27
120,2,-24
121,8,-24
122,4,-24
123,8,-29
124,-1,-24
125,5,-24
126,-2,-24
127,7,-24
128,-3,-24
129,0,-20
130,4,-26
131,0,-26
132,2,-26
133,-1,-24
134,0,-27
135,-7,-24
136,-8,-27
137,-17,-21
138,-12,-25
139,-17,-25
140,-11,-22
141,-17,-25
142,-15,-24
143,-15,-24
144,-15,-21
145,-15,-23
146,-16,-23
147,-16,-23
148,-12,-20
149,-8,-21
150,-9,-22
151,-4,-18
152,-1,-16
153,1,-10
154,14,-9
155,18,-8
156,10,-11
157,-1,-20
158,-15,-22
159,-14,-21
160,-17,-21
161,-16,-24
162,-19,-23
163,-14,-23
164,-12,-23
165,-10,-22
166,-7,-23
167,25,-19
168,114,-7
169,204,67
170,322,100
171,241,23
172,176,-79
173,135,-86
174,44,-47
175,-15,-23
176,-25,-21
177,-35,-22
178,-37,-21
179,-39,-19
180,-40,-19
181,-37,-20
182,-40,-21
183,-39,-18
184,-38,-15
185,-38,-13
186,-36,-13
187,-33,-16
188,-37,-16
189,-35,-16
190,-39,-10
191,-35,-12
192,-33,-11
193,-32,-15
194,-35,-15
195,-32,-11
196,-32,-13
197,-28,-9
198,-31,-13
199,-31,-11
200,-26,-11
201,-33,-7
202,-19,-11
203,-29,-9
204,-25,-9
205,-30,-11
206,-31,-5
207,-29,-8
208,-31,-5
209,-30,-6
210,-32,-4
211,-31,-6
212,-35,-2
213,-31,-3
214,-36,-4
215,-36,-3
216,-36,-3
217,-36,-3
218,-35,-4
219,-36,-2
220,-36,-1
221,-40,0
222,-44,-2
223,-43,-2
224,-42,-4
225,-45,-7
226,-42,-10
227,-46,-10
228,-42,-12
229,-42,-15
230,-40,-19
231,-39,-20
232,-39,-16
233,-39,-16
234,-39,-17
235,-35,-19
236,-38,-17
237,-31,-20
238,-39,-12
239,-25,-18
240,-36,-16
241,-30,-15
242,-31,-19
243,-33,-15
244,-26,-13
245,-32,-13
246,-32,-16
247,-31,-13
248,-32,-13
249,-36,-13
250,-29,-13
251,-31,-13
252,-30,-12
253,-32,-16
254,-33,-12
255,-29,-15
256,-31,-12
257,-30,-13
258,-32,-15
259,-31,-15
260,-30,-12
261,-28,-12
262,-28,-16
263,-26,-17
264,-29,-15
265,-30,-12
266,-26,-13
267,-25,-15
268,-28,-10
269,-29,-16
270,-32,-12
271,-23,-10
272,-29,-12
273,-24,-12
274,-29,-15
275,-24,-8
276,-30,-9
277,-22,-10
278,-28,-10
279,-24,-9
280,-25,-9
281,-28,-7
282,-25,-12
283,-24,-13
284,-26,-15
285,-28,-12
286,-29,-11
287,-29,-9
288,-24,-10
289,-26,-8
290,-29,-10
291,-30,-10
292,-35,-10
293,-33,-11
294,-37,-16
295,-40,-19
296,-43,-16
297,-49,-16
298,-49,-13
299,-43,-9
300,-45,-7
301,-47,-5
302,-38,-12
303,-29,-3
304,-15,-3
305,25,-2
306,107,3
307,196,73
308,318,118
309,230,41
310,164,-72
311,134,-79
312,39,-36
313,-15,-12
314,-30,-12
315,-37,-10
316,-32,-8
317,-39,-7
318,-39,-9
319,-42,-7
320,-40,-6
321,-42,-4
322,-37,-6
323,-42,-6
324,-37,-6
325,-38,-5
326,-38,-6
327,-39,-5
328,-36,-5
329,-40,-5
330,-39,-6
331,-37,-6
332,-36,-2
333,-37,-3
334,-33,-5
335,-35,-4
336,-31,-5
337,-32,-4
338,-30,-4
339,-28,-4
340,-25,-2
341,-28,-2
342,-26,-3
343,-29,-3
344,-28,-2
345,-28,-3
346,-26,-4
347,-28,-2
348,-28,-2
349,-30,0
350,-25,0
351,-29,2
352,-30,4
353,-33,4
354,-31,2
355,-36,6
356,-28,5
357,-32,6
358,-32,3
359,-33,7
360,-30,3
361,-40,6
362,-29,0
363,-39,-4
364,-33,-7
365,-36,-12
366,-32,-16
367,-35,-16
368,-30,-15
369,-35,-13
370,-31,-16
371,-31,-17
372,-30,-12
373,-29,-15
374,-25,-16
375,-28,-19
376,-28,-18
377,-29,-18
378,-26,-16
379,-24,-16
380,-23,-15
381,-24,-13
382,-25,-16
383,-28,-13
384,-26,-12
385,-23,-15
386,-23,-17
387,-23,-15
388,-24,-15
389,-29,-13
390,-25,-15
391,-23,-13
392,-26,-17
393,-26,-13
394,-26,-17
395,-31,-13
396,-26,-12
397,-28,-10
398,-28,-12
399,-29,-12
400,-25,-13
401,-31,-11
402,-21,-15
403,-26,-13
404,-26,-15
405,-28,-11
406,-28,-18
407,-30,-13
408,-25,-11
409,-25,-11
410,-25,-12
411,-25,-11
412,-24,-11
413,-24,-10
414,-22,-11
415,-23,-11
416,-22,-10
417,-21,-8
418,-26,-9
419,-24,-10
420,-23,-11
421,-22,-10
422,-24,-12
423,-24,-10
424,-29,-9
425,-23,-10
426,-21,-9
427,-22,-9
428,-22,-8
429,-22,-8
430,-25,-8
431,-21,-8
432,-22,-7
433,-19,-9
434,-19,-10
435,-22,-7
436,-23,-9
437,-18,-7
438,-24,-7
439,-21,-7
440,-21,-7
441,-23,-5
442,-24,-6
443,-14,-7
444,-23,-4
445,-21,-6
446,-21,-9
447,-22,-5
448,-21,-7
449,-21,-5
450,-18,-9
451,-22,-7
452,-19,-9
453,-19,-5
454,-16,-8
455,-22,-7
456,-19,-7
457,-22,-7
458,-22,-7
459,-21,-7
460,-15,-5
461,-17,-3
462,-15,-4
463,-10,-2
464,-9,0
465,-5,0
466,3,1
467,11,6
468,10,7
469,-2,0
470,-17,-5
471,-15,-5
472,-18,-5
473,-19,-8
474,-21,-9
475,-16,-7
476,-18,-7
477,-16,-6
478,-10,-5
479,37,-6
480,124,19
481,236,76
482,278,114
483,207,10
484,162,-65
485,108,-55
486,16,-22
487,-23,-4
488,-28,-5
489,-32,-1
490,-31,-5
491,-36,0
492,-36,-3
493,-39,4
494,-35,2
495,-32,0
496,-32,2
497,-36,0
498,-36,1
499,-37,3
500,-28,3
501,-31,2
502,-31,1
503,-32,3
504,-30,1
505,-33,4
506,-28,1
507,-28,2
508,-26,3
509,-28,1
510,-29,2
511,-28,3
512,-23,1
513,-26,3
514,-25,1
515,-25,2
516,-23,2
517,-19,4
518,-18,5
519,-19,8
520,-19,7
521,-21,8
522,-19,9
523,-17,10
524,-18,9
525,-21,10
526,-21,8
527,-23,11
528,-24,13
529,-22,13
530,-21,13
531,-24,16
532,-24,18
533,-23,19
534,-22,18
535,-22,15
536,-22,13
537,-24,11
538,-24,8
539,-24,7
540,-22,5
541,-21,2
542,-22,0
543,-21,0
544,-18,0
545,-21,1
546,-18,1
547,-16,1
548,-16,2
549,-17,3
550,-17,3
551,-16,3
552,-14,3
553,-15,3
554,-14,3
555,-15,1
556,-16,3
557,-14,1
558,-12,1
559,-15,2
560,-15,4
561,-14,3
562,-18,4
563,-12,3
564,-16,3
565,-14,4
566,-17,0
567,-12,1
568,-17,2
569,-8,0
570,-19,0
571,-15,1
572,-17,-1
573,-16,1
574,-15,2
575,-11,2
576,-14,-1
577,-16,2
578,-14,-4
579,-18,3
580,-9,0
581,-15,3
582,-10,0
583,-18,0
584,-15,1
585,-18,2
586,-10,-1
587,-16,1
588,-10,3
589,-15,0
590,-18,1
591,-11,2
592,-11,3
593,-10,3
594,-15,3
595,-10,2
596,-19,5
597,-8,2
598,-16,2
599,-11,2
600,-16,2
601,-15,3
602,-14,3
603,-9,3
604,-11,3
605,-12,3
606,-12,2
607,-15,4
608,-10,2
609,-9,5
610,-9,3
611,-10,4
612,-10,7
613,-11,7
614,-9,5
615,-12,5
616,-12,5
617,-14,5
618,-15,6
619,-15,7
620,-9,8
621,-11,5
622,-7,4
623,-8,6
624,1,8
625,2,8
626,9,11
627,17,12
628,16,13
629,3,10
630,-5,3
631,-11,2
632,-14,4
633,-16,0
634,-17,2
635,-10,1
636,-9,0
637,-8,-3
638,-12,-2
639,18,1
640,80,6
641,183,64
642,291,119
643,257,68
644,187,-36
645,153,-63
646,64,-33
647,5,-3
648,-17,1
649,-24,4
650,-29,0
651,-32,6
652,-28,3
653,-28,5
654,-24,3
655,-32,5
656,-26,6
657,-33,8
658,-24,7
659,-28,8
660,-28,8
661,-28,8
662,-25,7
663,-31,8
664,-21,8
665,-25,8
666,-24,9
667,-22,7
668,-21,8
669,-24,9
670,-17,9
671,-19,10
672,-16,10
673,-18,9
674,-16,11
675,-19,10
676,-9,10
677,-15,11
678,-16,9
679,-15,9
680,-12,15
681,-14,13
682,-5,12
683,-12,15
684,-10,13
685,-15,12
686,-12,16
687,-15,15
688,-12,17
689,-19,13
690,-17,15
691,-17,11
692,-19,15
693,-21,13
694,-19,15
695,-22,13
696,-22,12
697,-21,10
698,-23,5
699,-24,4
700,-19,2
701,-21,1
702,-15,-2
703,-15,-3
704,-17,-2
705,-11,-3
706,-11,-2
707,-11,-6
708,-9,-6
709,-9,-4
710,-9,-4
711,-9,-2
712,-5,0
713,-9,-2
714,-8,-3
715,-10,-4
716,-10,0
717,-11,-2
718,-8,-1
719,-10,-5
720,-8,-3
721,-9,-5
722,-8,-4
723,-11,-4
724,-5,-1
725,-11,-3
726,-8,-2
727,-10,-3
728,-10,-4
729,-15,-1
730,-8,-4
731,-11,-3
732,-8,-2
733,-10,-2
734,-8,-3
735,-12,-2
736,-4,-3
737,-15,-2
738,-8,-2
739,-11,-4
740,-7,-6
741,-12,-2
742,-2,-5
743,-10,-3
744,-7,-3
745,-8,-3
746,-9,-4
747,-11,-3
748,-5,-3
749,-3,-4
750,-4,-5
751,-8,-6
752,-8,-3
753,-8,-2
754,-2,-3
755,-4,-4
756,-3,-4
757,-7,-4
758,-8,-5
759,-8,-3
760,-7,-2
761,-5,-4
762,-3,-4
763,-1,-3
764,-5,0
765,-3,-1
766,-3,-1
767,-5,-1
768,-2,-3
769,-3,-3
770,-5,-4
771,-3,-1
772,-3,1
773,-8,-1
774,-4,-3
775,-8,-1
776,-7,2
777,-15,2
778,-3,1
779,-8,2
780,0,2
781,-3,5
782,2,6
783,0,10
784,23,9
785,25,15
786,24,13
787,4,5
788,1,1
789,-8,1
790,-2,-1
791,-7,-3
792,-7,-1
793,-5,3
794,-2,-4
795,-5,1
796,-3,-4
797,40,4
798,109,6
799,219,74
800,303,101
801,255,55
802,202,-45
803,163,-61
804,71,-27
805,9,-1
806,-11,0
807,-19,3
808,-22,4
809,-21,4
810,-21,3
811,-22,3
812,-21,3
813,-22,2
814,-23,3
815,-21,2
816,-19,4
817,-21,5
818,-22,3
819,-22,4
820,-21,9
821,-15,6
822,-18,7
823,-16,9
824,-15,10
825,-15,9
826,-11,10
827,-9,8
828,-9,8
829,-8,8
830,-9,7
831,-7,6
832,-9,10
833,-5,8
834,-4,8
835,-7,9
836,-8,8
837,-4,9
838,-7,12
839,-7,10
840,-7,9
841,-7,11
842,-7,11
843,-7,12
844,-9,13
845,-5,13
846,-10,13
847,-11,13
848,-11,15
849,-11,16
850,-12,16
851,-8,16
852,-9,17
853,-14,13
854,-17,10
855,-15,7
856,-23,5
857,-17,3
858,-16,0
859,-14,-2
860,-17,-3
861,-11,-5
862,-18,-4
863,-7,-4
864,-11,-7
865,-4,-4
866,-5,-4
867,-1,-5
868,-5,-2
869,5,-2
870,1,-2
871,-1,-5
872,-1,-1
873,0,-3
874,-4,-1
875,-1,-1
876,2,-2
877,-3,-3
878,-2,-2
879,-2,-5
880,-4,1
881,-5,0
882,-3,0
883,-5,-1
884,-4,1
885,-4,-1
886,-7,2
887,-8,-1
888,-1,0
889,-4,0
890,-4,1
891,-9,0
892,-7,1
893,-10,4
894,-1,2
895,-8,1
896,-2,1
897,-10,4
898,-5,-1
899,-11,2
900,-2,-1
901,-7,4
902,-3,0
903,-10,1
904,-7,-3
905,-10,0
906,-1,-1
907,-9,1
908,-5,0
909,-5,0
910,-5,-3
911,-10,0
912,-4,-1
913,-3,0
914,-4,-4
915,-5,-3
916,-9,-3
917,-8,-1
918,-5,-2
919,-7,-2
920,-5,0
921,-4,-2
922,-8,-3
923,-8,-1
924,-5,1
925,-4,-1
926,-7,-2
927,-5,-3
928,-9,-1
929,-8,0
930,-2,-1
931,-4,0
932,-9,2
933,-9,1
934,-9,0
935,-10,4
936,-7,3
937,-2,3
938,-3,1
939,-7,1
940,0,4
941,-2,7
942,8,9
943,15,9
944,24,15
945,22,12
946,12,6
947,-1,3
948,1,0
949,-5,2
950,-9,-2
951,-11,-4
952,-7,-3
953,-9,-3
954,2,-5
955,-8,-3
956,28,-2
957,100,9
958,209,60
959,287,100
960,280,74
961,209,-25
962,173,-62
963,90,-38
964,15,-7
965,-11,0
966,-17,-2
967,-25,-1
968,-22,0
969,-29,-1
970,-23,1
971,-25,3
972,-22,2
973,-24,3
974,-22,1
975,-23,3
976,-23,2
977,-21,3
978,-12,3
979,-14,5
980,-15,6
981,-14,4
982,-11,4
983,-10,6
984,-7,7
985,-7,8
986,-7,8
987,-5,7
988,-4,7
989,-2,10
990,-2,9
991,-1,8
992,-2,8
993,0,11
994,1,13
995,2,11
996,4,10
997,4,11
998,4,10
999,3,12
1000,3,15
1001,4,17
1002,2,13
1003,-2,16
1004,0,17
1005,-5,20
1006,-1,18
1007,-4,20
1008,-2,20
1009,-8,20
1010,-5,20
1011,-10,22
1012,-7,21
1013,-11,16
1014,-10,13
1015,-15,8
1016,-12,8
1017,-12,6
1018,-8,5
1019,-5,1
1020,-5,1
1021,1,-3
1022,-5,3
1023,5,0
1024,0,0
1025,9,-1
1026,0,-1
1027,9,-2
1028,2,3
1029,14,0
1030,9,-1
1031,9,2
1032,8,-2
1033,8,2
1034,10,2
1035,10,1
1036,8,-1
1037,3,0
1038,10,-4
1039,1,-1
1040,11,-3
1041,1,-2
1042,7,-3
1043,2,-3
1044,2,-2
1045,1,-4
1046,4,-2
1047,1,-2
1048,4,-1
1049,2,-1
1050,1,0
1051,2,-1
1052,0,1
1053,-3,0
1054,-1,-3
1055,0,-5
1056,1,-1
1057,1,0
1058,1,0
1059,1,-1
1060,0,1
1061,-3,2
1062,-1,0
1063,-3,0
1064,-3,0
1065,-2,0
1066,-4,2
1067,-3,1
1068,-3,3
1069,1,0
1070,-4,2
1071,-1,-1
1072,-7,5
1073,1,1
1074,-4,2
1075,1,3
1076,-4,4
1077,-2,3
1078,-7,5
1079,2,3
1080,-1,5
1081,0,5
1082,-2,6
1083,-3,7
1084,-3,7
1085,1,7
1086,0,2
1087,-2,4
1088,0,0
1089,-8,9
1090,1,3
1091,-3,6
1092,0,6
1093,-8,7
1094,-4,3
1095,-10,8
1096,-4,7
1097,-11,9
1098,-4,6
1099,-9,4
1100,-2,7
1101,-7,9
1102,3,6
1103,-2,5
1104,5,9
1105,2,12
1106,7,16
1107,15,17
1108,23,18
1109,7,11
1110,-3,6
1111,-8,-1
1112,-16,5
1113,-15,1
1114,-14,0
1115,-12,-2
1116,-12,-1
1117,-5,-2
1118,-22,1
1119,2,0
1120,49,2
1121,147,40
1122,251,98
1123,314,116
1124,210,7
1125,175,-79
1126,106,-58
1127,16,-10
1128,-23,1
1129,-30,0
1130,-40,3
1131,-30,4
1132,-37,6
1133,-38,8
1134,-39,8
1135,-39,7
1136,-40,9
1137,-35,9
1138,-42,8
1139,-36,8
1140,-36,10
1141,-37,13
1142,-36,11
1143,-31,9
1144,-33,9
1145,-33,11
1146,-32,6
1147,-32,9
1148,-31,8
1149,-30,8
1150,-30,6
1151,-30,7
1152,-30,7
1153,-31,10
1154,-25,9
1155,-28,7
1156,-26,9
1157,-25,9
1158,-25,8
1159,-25,8
1160,-22,9
1161,-22,10
1162,-24,11
1163,-23,12
1164,-25,16
1165,-23,15
1166,-24,13
1167,-25,15
1168,-24,16
1169,-28,19
1170,-28,18
1171,-26,19
1172,-28,19
1173,-30,20
1174,-31,18
1175,-35,19
1176,-31,17
1177,-30,13
1178,-31,9
1179,-31,6
1180,-28,5
1181,-30,5
1182,-25,3
1183,-25,1
1184,-24,0
1185,-25,-1
1186,-23,-1
1187,-23,1
1188,-18,3
1189,-16,3
1190,-16,0
1191,-17,1
1192,-15,3
1193,-19,2
1194,-16,1
1195,-16,2
1196,-14,4
1197,-15,1
1198,-22,4
1199,-12,0
1200,-14,5
1201,-17,1
1202,-17,1
1203,-11,-2
1204,-18,5
1205,-11,1
1206,-17,1
1207,-12,0
1208,-18,1
1209,-17,2
1210,-23,0
1211,-11,-2
1212,-17,-2
1213,-14,0
1214,-18,-2
1215,-15,0
1216,-18,0
1217,-12,-2
1218,-14,-4
1219,-14,-3
1220,-16,-5
1221,-17,0
1222,-16,-4
1223,-15,-1
1224,-12,-3
1225,-16,0
1226,-12,-4
1227,-21,-1
1228,-12,-1
1229,-14,0
1230,-12,-1
1231,-17,-2
1232,-11,0
1233,-18,2
1234,-9,-1
1235,-14,-1
1236,-11,0
1237,-14,0
1238,-15,1
1239,-16,2
1240,-12,2
1241,-12,2
1242,-10,1
1243,-12,0
1244,-14,3
1245,-12,1
1246,-10,-1
1247,-9,1
1248,-11,1
1249,-15,2
1250,-16,3
1251,-11,1
1252,-12,2
1253,-11,2
1254,-12,1
1255,-16,2
1256,-15,3
1257,-11,3
1258,-12,2
1259,-10,2
1260,-10,3
1261,-10,4
1262,-5,7
1263,-1,8
1264,-1,11
1265,8,12
1266,16,16
1267,12,15
1268,3,10
1269,-4,4
1270,-9,2
1271,-14,-2
1272,-17,0
1273,-10,-1
1274,-8,2
1275,-8,-1
1276,-12,-2
1277,-7,-3
1278,24,-1
1279,115,11
