,0,1
0,19,5
1,28,5
2,42,2
3,38,-3
4,47,-2
5,54,-6
6,51,-4
7,43,-3
8,37,-3
9,23,-7
10,14,-12
11,9,-13
12,9,-11
13,7,-11
14,7,-13
15,1,-21
16,23,4
17,117,3
18,289,-5
19,351,-57
20,138,-157
21,22,-142
22,2,-74
23,-9,-31
24,-5,-10
25,-12,-4
26,-3,-1
27,-11,2
28,-4,3
29,-9,4
30,-7,3
31,-7,6
32,-2,6
33,-2,9
34,-4,6
35,0,7
36,-2,9
37,1,12
38,1,14
39,5,13
40,5,17
41,9,19
42,9,19
43,12,23
44,17,27
45,24,28
46,24,30
47,30,31
48,32,34
49,35,34
50,32,34
51,38,34
52,36,34
53,35,29
54,30,23
55,29,20
56,28,20
57,23,12
58,23,10
59,21,6
60,23,6
61,19,4
62,23,2
63,18,2
64,31,0
65,19,0
66,22,-1
67,21,-2
68,21,-3
69,19,0
70,22,-4
71,27,-2
72,21,-3
73,24,0
74,22,-2
75,25,-1
76,25,3
77,29,2
78,27,1
79,28,2
80,29,2
81,27,3
82,27,3
83,30,3
84,32,4
85,29,4
86,29,1
87,28,1
88,24,2
89,27,2
90,27,-1
91,23,-1
92,23,-1
93,21,-3
94,23,-3
95,17,-3
96,23,-2
97,19,-2
98,21,-6
99,18,-4
100,21,-6
101,15,-2
102,17,-7
103,22,-4
104,12,-6
105,15,-5
106,10,-7
107,14,-6
108,10,-4
109,14,-6
110,11,-5
111,8,-7
112,10,-4
113,9,-6
114,9,-5
115,8,-5
116,10,-6
117,8,-5
118,9,-6
119,9,-6
120,3,-3
121,5,-4
122,9,-5
123,5,-4
124,5,-3
125,7,-4
126,14,-1
127,14,4
128,22,9
129,32,10
130,34,3
131,35,2
132,45,0
133,48,3
134,37,1
135,34,2
136,11,0
137,3,-6
138,-3,-9
139,-4,-10
140,-7,-6
141,-3,-9
142,-9,-11
143,-2,-5
144,72,19
145,242,-1
146,346,-34
147,184,-129
148,15,-156
149,-11,-85
150,-27,-36
151,-30,-11
152,-30,-1
153,-37,2
154,-31,4
155,-36,6
156,-34,6
157,-38,10
158,-37,4
159,-38,10
160,-41,10
161,-38,10
162,-43,9
163,-36,9
164,-42,12
165,-38,11
166,-43,13
167,-39,13
168,-38,17
169,-38,18
170,-36,19
171,-30,20
172,-31,26
173,-29,27
174,-22,26
175,-22,27
176,-17,30
177,-17,30
178,-18,28
179,-22,29
180,-22,26
181,-25,22
182,-30,17
183,-30,14
184,-31,11
185,-38,10
186,-32,4
187,-35,3
188,-31,2
189,-32,0
190,-32,-3
191,-32,-2
192,-31,-2
193,-24,-3
194,-34,-5
195,-27,-5
196,-31,-5
197,-30,-5
198,-34,-5
199,-27,-4
200,-28,-3
201,-28,-3
202,-29,-3
203,-27,-4
204,-28,-2
205,-22,-1
206,-24,-3
207,-22,-3
208,-24,0
209,-23,-2
210,-24,-1
211,-19,-1
212,-22,0
213,-22,-1
214,-24,-2
215,-27,-4
216,-28,0
217,-28,-2
218,-25,-4
219,-31,-5
220,-27,-5
221,-31,-6
222,-31,-10
223,-35,-6
224,-28,-7
225,-31,-7
226,-32,-10
227,-32,-9
228,-32,-9
229,-34,-7
230,-32,-9
231,-32,-10
232,-34,-9
233,-34,-10
234,-37,-10
235,-37,-10
236,-34,-7
237,-36,-7
238,-38,-11
239,-38,-11
240,-37,-9
241,-41,-7
242,-36,-10
243,-36,-9
244,-36,-10
245,-32,-6
246,-29,-6
247,-27,0
248,-18,3
249,-7,4
250,-3,-1
251,0,-2
252,11,-4
253,14,-2
254,7,-4
255,2,-2
256,-14,-6
257,-23,-10
258,-35,-13
259,-31,-15
260,-39,-10
261,-28,-15
262,-39,-13
263,-32,-23
264,9,26
265,175,-11
266,371,-3
267,265,-97
268,-14,-170
269,-28,-104
270,-43,-47
271,-42,-19
272,-47,-4
273,-44,-2
274,-43,1
275,-43,1
276,-42,4
277,-41,1
278,-42,5
279,-37,4
280,-37,6
281,-37,5
282,-36,5
283,-35,6
284,-34,9
285,-30,10
286,-29,10
287,-27,10
288,-25,14
289,-23,13
290,-18,17
291,-12,19
292,-9,21
293,-5,23
294,-1,23
295,0,26
296,2,29
297,7,29
298,5,28
299,4,27
300,5,22
301,0,23
302,-2,17
303,-1,14
304,-3,9
305,-4,6
306,-4,1
307,-7,3
308,-3,-1
309,-1,-1
310,0,-4
311,-1,-2
312,1,-6
313,-2,-3
314,4,-7
315,3,-6
316,3,-5
317,3,-6
318,2,-6
319,1,-4
320,7,-4
321,7,-3
322,7,-4
323,9,-5
324,9,-1
325,10,-1
326,12,-1
327,14,0
328,14,1
329,16,1
330,11,1
331,17,1
332,14,2
333,16,2
334,15,0
335,11,1
336,11,1
337,15,1
338,12,-4
339,10,-1
340,12,-3
341,7,-2
342,11,-4
343,9,-3
344,12,-3
345,5,-4
346,10,-6
347,5,-3
348,12,-4
349,7,-5
350,8,-6
351,7,-7
352,7,-5
353,8,-5
354,10,-7
355,8,-7
356,8,-5
357,3,-6
358,7,-5
359,8,-6
360,9,-5
361,5,-5
362,9,-7
363,3,-5
364,14,-5
365,10,-4
366,18,-2
367,18,1
368,34,9
369,36,7
370,43,3
371,45,-4
372,54,-2
373,57,-3
374,47,0
375,42,-1
376,27,-1
377,18,-6
378,10,-9
379,7,-9
380,8,-7
381,10,-7
382,0,-12
383,11,-7
384,71,18
385,219,-2
386,390,-17
387,208,-136
388,35,-163
389,10,-93
390,-10,-35
391,-3,-11
392,-7,1
393,-5,1
394,-11,4
395,-5,4
396,-9,10
397,-2,9
398,-3,7
399,-3,7
400,-4,10
401,-5,12
402,-1,12
403,1,11
404,1,14
405,-2,13
406,0,14
407,0,18
408,8,22
409,4,19
410,8,23
411,10,23
412,11,30
413,15,31
414,21,31
415,19,32
416,25,36
417,24,35
418,21,34
419,22,32
420,22,31
421,17,28
422,12,22
423,9,19
424,5,18
425,5,13
426,3,10
427,3,5
428,4,4
429,0,3
430,3,0
431,5,-1
432,1,-2
433,3,-2
434,1,-7
435,-2,-3
436,0,-2
437,1,-2
438,-2,-6
439,0,-4
440,-2,-4
441,-3,-2
442,-1,-4
443,4,-2
444,1,-2
445,1,-1
446,1,0
447,-2,1
448,3,3
449,3,1
450,1,1
451,0,1
452,-1,2
453,-3,3
454,-1,2
455,-2,0
456,-2,1
457,-7,0
458,-5,-2
459,-15,-2
460,-5,-3
461,-10,-2
462,-8,-4
463,-12,-3
464,-12,-5
465,-17,-2
466,-11,-5
467,-16,-4
468,-12,-5
469,-16,-5
470,-16,-7
471,-17,-4
472,-14,-6
473,-17,-5
474,-17,-6
475,-18,-6
476,-18,-5
477,-19,-3
478,-17,-5
479,-17,-5
480,-17,-4
481,-19,-5
482,-19,-6
483,-21,-4
484,-17,-3
485,-18,-5
486,-18,-4
487,-21,-5
488,-15,-2
489,-15,2
490,-3,3
491,-4,6
492,5,11
493,10,6
494,12,3
495,21,3
496,30,4
497,24,2
498,11,1
499,-5,0
500,-15,-4
501,-28,-3
502,-23,-10
503,-27,-5
504,-22,-6
505,-31,-6
506,-29,-17
507,27,27
508,194,2
509,362,-5
510,239,-94
511,-5,-151
512,-32,-89
513,-45,-37
514,-47,-11
515,-43,-1
516,-48,3
517,-50,6
518,-50,4
519,-51,7
520,-51,9
521,-51,9
522,-52,9
523,-51,6
524,-52,10
525,-54,11
526,-57,10
527,-54,12
528,-55,13
529,-52,12
530,-52,12
531,-52,13
532,-50,18
533,-47,18
534,-42,18
535,-41,19
536,-36,22
537,-32,24
538,-31,27
539,-25,26
540,-27,28
541,-25,27
542,-27,24
543,-30,21
544,-32,21
545,-32,17
546,-35,13
547,-37,10
548,-38,9
549,-38,4
550,-41,4
551,-34,1
552,-30,1
553,-30,0
554,-28,-1
555,-28,-4
556,-29,1
557,-24,-3
558,-23,-3
559,-21,-3
560,-21,-2
561,-25,-4
562,-19,-4
563,-24,-2
564,-14,-2
565,-18,0
566,-15,-2
567,-17,1
568,-9,1
569,-16,3
570,-4,2
571,-11,3
572,-3,3
573,-9,4
574,-3,2
575,-9,5
576,-3,2
577,-2,4
578,-2,2
579,-5,2
580,-4,1
581,-3,3
582,-7,0
583,-1,0
584,-5,0
585,-3,-1
586,-5,-2
587,-7,-1
588,-3,0
589,-1,-2
590,-5,-3
591,-3,-3
592,-4,-3
593,-8,-2
594,-3,-3
595,-2,-3
596,-2,-3
597,-3,-2
598,-2,-4
599,-4,-3
600,-1,-3
601,-2,-2
602,-2,-4
603,-4,-2
604,-2,-4
605,-4,-2
606,-5,-3
607,-2,-3
608,-5,-2
609,-4,-2
610,-9,-4
611,-3,-2
612,-10,0
613,2,0
614,2,2
615,11,5
616,16,9
617,25,12
618,25,5
619,36,1
620,41,2
621,43,3
622,36,3
623,28,4
624,15,2
625,9,-2
626,1,-4
627,-2,-5
628,-1,-5
629,-3,-4
630,-8,-11
631,11,3
632,87,18
633,241,0
634,381,-20
635,162,-137
636,18,-145
637,-3,-74
638,-16,-28
639,-14,-5
640,-16,2
641,-17,7
642,-18,7
643,-12,10
644,-16,11
645,-15,13
646,-16,12
647,-16,13
648,-16,15
649,-12,15
650,-16,17
651,-14,15
652,-14,18
653,-15,21
654,-10,20
655,-7,22
656,-7,24
657,-5,27
658,0,27
659,-1,30
660,7,32
661,9,35
662,14,34
663,15,38
664,22,38
665,17,42
666,25,35
667,19,36
668,24,35
669,16,32
670,15,24
671,10,24
672,12,21
673,10,18
674,8,13
675,9,11
676,9,10
677,9,10
678,10,7
679,11,5
680,11,6
681,10,3
682,9,2
683,9,3
684,14,4
685,8,3
686,11,3
687,9,1
688,12,4
689,5,6
690,17,3
691,12,5
692,16,6
693,14,7
694,16,7
695,16,9
696,21,10
697,21,9
698,21,9
699,21,9
700,21,11
701,22,9
702,19,9
703,23,6
704,21,10
705,21,5
706,15,6
707,23,4
708,18,7
709,19,3
710,14,4
711,17,2
712,16,5
713,16,4
714,15,2
715,15,1
716,16,2
717,12,3
718,15,1
719,16,0
720,15,2
721,14,1
722,14,-2
723,12,3
724,16,2
725,15,2
726,16,0
727,12,3
728,15,-1
729,10,4
730,14,0
731,12,3
732,14,3
733,10,4
734,10,1
735,10,3
736,14,2
737,17,4
738,19,5
739,25,11
740,31,15
741,39,15
742,44,10
743,51,5
744,56,7
745,56,5
746,50,6
747,44,7
748,32,5
749,22,1
750,14,-1
751,14,-4
752,8,1
753,15,-2
754,4,-9
755,23,6
756,98,23
757,257,-3
758,393,-14
759,176,-148
760,30,-149
761,17,-72
762,-3,-21
763,2,-2
764,-7,10
765,0,11
766,-9,14
767,-3,14
768,-5,18
769,-7,18
770,-11,19
771,-4,19
772,-8,20
773,-7,20
774,-7,19
775,-7,21
776,-8,23
777,-3,24
778,-3,26
779,-4,26
780,-1,30
781,-2,32
782,3,32
783,9,36
784,7,38
785,9,39
786,14,38
787,14,44
788,15,45
789,17,45
790,18,44
791,12,42
792,10,42
793,7,36
794,8,35
795,1,29
796,1,28
797,0,21
798,-9,20
799,-9,18
800,-1,15
801,-8,14
802,-5,13
803,-9,9
804,-8,12
805,-8,10
806,-5,7
807,-5,5
808,-8,9
809,-11,6
810,-9,7
811,-9,7
812,-5,9
813,-9,9
814,-9,7
815,-9,9
816,-7,10
817,-10,11
818,-3,11
819,-4,11
820,-5,11
821,-7,12
822,-7,11
823,-4,12
824,-4,13
825,-7,12
826,-9,11
827,-9,10
828,-14,10
829,-14,10
830,-11,9
831,-15,7
832,-15,7
833,-16,4
834,-18,6
835,-19,5
836,-14,7
837,-19,4
838,-18,4
839,-21,2
840,-22,5
841,-22,3
842,-17,3
843,-23,2
844,-16,4
845,-21,1
846,-19,2
847,-28,3
848,-18,2
849,-25,4
850,-22,1
851,-27,2
852,-24,2
853,-28,5
854,-23,2
855,-23,2
856,-21,4
857,-18,5
858,-16,9
859,-10,13
860,0,17
861,3,17
862,8,11
863,12,9
864,24,10
865,17,10
866,18,10
867,-1,7
868,-10,5
869,-25,0
870,-28,-4
871,-34,0
872,-27,-1
873,-30,0
874,-35,-4
875,-18,4
876,79,30
877,272,7
878,348,-23
879,124,-120
880,-35,-122
881,-42,-62
882,-47,-21
883,-51,0
884,-48,9
885,-51,11
886,-51,11
887,-52,14
888,-51,13
889,-56,19
890,-52,14
891,-51,18
892,-54,19
893,-55,18
894,-57,15
895,-57,20
896,-56,21
897,-52,20
898,-55,20
899,-54,21
900,-51,23
901,-52,26
902,-48,26
903,-44,28
904,-42,30
905,-41,32
906,-35,29
907,-37,36
908,-30,35
909,-25,37
910,-30,32
911,-30,34
912,-31,29
913,-36,27
914,-39,22
915,-36,19
916,-39,17
917,-39,13
918,-42,9
919,-38,9
920,-36,10
921,-31,6
922,-30,3
923,-28,4
924,-27,2
925,-28,4
926,-27,3
927,-22,3
928,-24,3
929,-23,3
930,-27,2
931,-22,1
932,-25,4
933,-18,4
934,-21,4
935,-16,6
936,-15,6
937,-14,9
938,-14,9
939,-8,7
940,-8,10
941,-5,10
942,-5,7
943,-4,9
944,-5,11
945,-2,10
946,-4,6
947,-1,7
948,-8,10
949,-1,5
950,-10,7
951,-1,4
952,-4,7
953,-3,4
954,-3,3
955,-3,2
956,-4,6
957,-3,3
958,-2,4
959,-4,1
960,-2,3
961,-2,2
962,-2,1
963,-1,2
964,2,3
965,1,2
966,1,1
967,2,0
968,3,2
969,1,2
970,4,2
971,4,3
972,5,3
973,2,3
974,5,1
975,-1,4
976,9,3
977,4,4
978,7,1
979,8,4
980,16,5
981,18,14
982,25,15
983,38,15
984,41,13
985,45,9
986,50,5
987,57,9
988,51,9
989,48,10
990,30,6
991,21,2
992,14,2
993,9,1
994,8,0
995,12,-1
996,4,-3
997,10,-1
998,65,23
999,199,9
1000,378,5
1001,270,-97
1002,58,-152
1003,15,-93
1004,-1,-36
1005,-2,-6
1006,-7,6
1007,-1,9
1008,-4,14
1009,-3,14
1010,-3,14
1011,-2,14
1012,-3,21
1013,-3,18
1014,1,17
1015,-1,19
1016,1,20
1017,1,20
1018,-1,21
1019,2,22
1020,7,23
1021,8,26
1022,9,26
1023,11,26
1024,12,31
1025,18,31
1026,22,32
1027,25,35
1028,28,38
1029,29,37
1030,32,42
1031,31,40
1032,38,44
1033,31,40
1034,32,36
1035,28,36
1036,27,34
1037,18,29
1038,23,22
1039,21,20
1040,18,18
1041,16,15
1042,17,11
1043,18,10
1044,19,10
1045,19,10
1046,18,6
1047,18,6
1048,18,5
1049,17,5
1050,17,4
1051,18,4
1052,18,5
1053,17,5
1054,18,4
1055,17,6
1056,19,7
1057,22,9
1058,19,7
1059,23,9
1060,23,7
1061,21,12
1062,25,10
1063,27,11
1064,27,11
1065,25,11
1066,22,6
1067,24,10
1068,21,11
1069,25,10
1070,21,7
1071,23,7
1072,18,7
1073,22,5
1074,15,7
1075,24,3
1076,17,7
1077,19,3
1078,14,3
1079,16,1
1080,9,6
1081,16,3
1082,11,3
1083,12,2
1084,10,3
1085,10,2
1086,7,2
1087,9,2
1088,9,3
1089,9,2
1090,4,1
1091,4,-1
1092,5,3
1093,5,2
1094,8,1
1095,5,1
1096,4,2
1097,3,2
1098,0,2
1099,2,2
1100,4,3
1101,2,3
1102,3,2
1103,3,2
1104,7,5
1105,12,11
1106,16,14
1107,24,15
1108,29,14
1109,32,10
1110,35,5
1111,44,7
1112,44,7
1113,35,9
1114,17,6
1115,8,3
1116,-4,3
1117,-8,0
1118,-9,-1
1119,-10,-3
1120,-11,1
1121,-14,-11
1122,8,22
1123,118,13
1124,306,11
1125,345,-48
1126,76,-155
1127,-4,-117
1128,-22,-46
1129,-32,-11
1130,-27,3
1131,-32,7
1132,-31,11
1133,-41,14
1134,-39,13
1135,-41,17
1136,-32,15
1137,-41,18
1138,-38,15
1139,-41,17
1140,-43,19
1141,-43,20
1142,-39,18
1143,-39,20
1144,-39,20
1145,-42,21
1146,-42,22
1147,-39,23
1148,-34,26
1149,-34,28
1150,-31,29
1151,-29,27
1152,-29,31
1153,-21,32
1154,-17,32
1155,-18,31
1156,-19,35
1157,-23,29
1158,-28,30
1159,-27,26
1160,-25,24
1161,-34,17
1162,-35,13
1163,-38,10
1164,-37,11
1165,-41,7
1166,-38,3
1167,-37,3
1168,-36,2
1169,-34,0
1170,-36,0
1171,-37,1
1172,-32,-1
1173,-34,-2
1174,-32,-3
1175,-32,-1
1176,-35,1
1177,-34,0
1178,-34,-1
1179,-32,0
1180,-36,2
1181,-31,2
1182,-36,2
1183,-29,3
1184,-30,5
1185,-28,4
1186,-30,6
1187,-25,2
1188,-31,11
1189,-21,4
1190,-29,7
1191,-22,3
1192,-30,7
1193,-28,3
1194,-32,6
1195,-27,4
1196,-28,5
1197,-28,3
1198,-28,3
1199,-27,1
1200,-30,4
1201,-29,2
1202,-28,0
1203,-27,1
1204,-28,0
1205,-28,-1
1206,-34,0
1207,-27,-1
1208,-28,1
1209,-28,-1
1210,-30,-2
1211,-24,-2
1212,-37,2
1213,-16,-2
1214,-28,-2
1215,-30,-3
1216,-24,1
1217,-29,-4
1218,-30,0
1219,-29,-2
1220,-25,-1
1221,-28,0
1222,-25,-2
1223,-24,0
1224,-25,2
1225,-19,2
1226,-12,5
1227,-9,10
1228,1,15
1229,9,11
1230,10,10
1231,16,6
1232,29,7
1233,25,4
1234,23,6
1235,8,4
1236,-1,2
1237,-18,0
1238,-10,-4
1239,-23,-3
1240,-16,-2
1241,-21,-3
1242,-27,-10
1243,-8,3
1244,74,29
1245,249,-2
1246,346,-24
1247,162,-131
1248,-9,-144
1249,-23,-72
1250,-36,-26
1251,-32,-2
1252,-34,6
1253,-35,9
1254,-36,9
1255,-36,13
1256,-35,15
1257,-31,14
1258,-36,13
1259,-31,14
1260,-34,15
1261,-35,18
1262,-37,19
1263,-25,15
1264,-35,20
1265,-28,20
1266,-31,20
1267,-25,21
1268,-27,27
1269,-18,26
1270,-17,26
1271,-16,29
1272,-10,31
1273,-9,32
1274,-7,35
1275,0,37
1276,3,39
1277,2,39
1278,2,37
1279,1,32
