,0,1
0,136,91
1,148,93
2,153,86
3,152,80
4,140,72
5,123,59
6,100,44
7,83,29
8,58,18
9,39,6
10,15,0
11,2,-8
12,-5,-9
13,-6,-14
14,-11,-18
15,-15,-21
16,-19,-18
17,-20,-19
18,-23,-18
19,-21,-18
20,-23,-16
21,-24,-16
22,-21,-16
23,-18,-18
24,-16,-14
25,-24,-9
26,-16,-16
27,-19,-12
28,-10,-12
29,-15,-9
30,-16,-13
31,-18,-9
32,-18,-9
33,-11,-9
34,-16,-13
35,-16,-14
36,-18,-13
37,-20,-14
38,-24,-14
39,-23,-16
40,-19,-16
41,-23,-19
42,-19,-21
43,-21,-21
44,-25,-17
45,-29,-18
46,-25,-21
47,-24,-21
48,-23,-22
49,-27,-21
50,-24,-23
51,-29,-21
52,-25,-21
53,-24,-21
54,-25,-22
55,-24,-21
56,-34,-19
57,-25,-21
58,-28,-17
59,-19,-19
60,-30,-17
61,-30,-21
62,-27,-17
63,-28,-22
64,-29,-17
65,-29,-19
66,-21,-22
67,-25,-21
68,-24,-21
69,-30,-18
70,-28,-23
71,-27,-22
72,-27,-19
73,-21,-21
74,-29,-19
75,-28,-22
76,-28,-21
77,-25,-21
78,-25,-19
79,-24,-19
80,-27,-19
81,-24,-19
82,-24,-19
83,-29,-21
84,-32,-16
85,-29,-18
86,-27,-17
87,-28,-21
88,-27,-19
89,-29,-19
90,-24,-14
91,-27,-7
92,-5,-4
93,-6,3
94,5,0
95,-2,-1
96,-7,-8
97,-9,-3
98,-15,-7
99,-20,-17
100,-32,-14
101,-25,-18
102,-37,-16
103,-36,-23
104,-38,-16
105,-37,-22
106,-30,-21
107,-30,-19
108,-30,-23
109,-68,-22
110,-72,-1
111,24,53
112,189,101
113,392,88
114,359,-14
115,76,-105
116,-65,-98
117,-72,-49
118,-45,-23
119,-42,-17
120,-46,-13
121,-47,-14
122,-47,-16
123,-46,-13
124,-49,-12
125,-43,-8
126,-51,-13
127,-47,-9
128,-50,-12
129,-42,-12
130,-50,-9
131,-46,-12
132,-45,-7
133,-46,-11
134,-43,-9
135,-45,-9
136,-42,-7
137,-46,-4
138,-37,-6
139,-38,-7
140,-32,-6
141,-29,-2
142,-33,2
143,-32,4
144,-23,7
145,-12,13
146,-7,17
147,-2,24
148,5,31
149,14,38
150,33,43
151,47,52
152,61,59
153,81,65
154,95,70
155,112,79
156,123,81
157,139,83
158,144,80
159,149,77
160,141,70
161,128,55
162,104,45
163,91,32
164,67,22
165,41,8
166,27,0
167,12,-8
168,-5,-11
169,-14,-13
170,-11,-18
171,-21,-17
172,-21,-19
173,-24,-19
174,-27,-22
175,-27,-18
176,-25,-18
177,-29,-18
178,-29,-18
179,-23,-18
180,-20,-16
181,-25,-11
182,-24,-12
183,-25,-12
184,-24,-11
185,-21,-9
186,-19,-13
187,-21,-8
188,-19,-8
189,-16,-11
190,-16,-14
191,-16,-12
192,-19,-11
193,-21,-13
194,-29,-16
195,-20,-17
196,-24,-14
197,-20,-17
198,-27,-17
199,-29,-19
200,-28,-14
201,-28,-18
202,-20,-22
203,-27,-19
204,-24,-19
205,-30,-21
206,-28,-22
207,-32,-18
208,-25,-18
209,-30,-21
210,-27,-23
211,-28,-21
212,-29,-19
213,-28,-18
214,-25,-21
215,-23,-22
216,-25,-18
217,-28,-18
218,-28,-22
219,-32,-18
220,-25,-18
221,-28,-19
222,-24,-23
223,-19,-19
224,-27,-19
225,-29,-18
226,-33,-18
227,-19,-22
228,-28,-16
229,-27,-17
230,-32,-17
231,-29,-19
232,-32,-12
233,-32,-19
234,-20,-18
235,-24,-19
236,-32,-17
237,-36,-18
238,-28,-16
239,-24,-8
240,-12,-6
241,-11,0
242,-2,3
243,2,1
244,-5,-1
245,-9,-3
246,-3,-6
247,-9,-13
248,-27,-14
249,-30,-14
250,-33,-19
251,-33,-17
252,-32,-17
253,-36,-16
254,-33,-18
255,-29,-18
256,-25,-21
257,-41,-19
258,-78,-12
259,-36,22
260,95,86
261,264,106
262,501,54
263,257,-81
264,-20,-121
265,-82,-89
266,-58,-32
267,-36,-18
268,-42,-13
269,-42,-14
270,-43,-12
271,-45,-12
272,-41,-9
273,-46,-8
274,-42,-12
275,-46,-12
276,-45,-9
277,-46,-9
278,-38,-9
279,-43,-9
280,-43,-9
281,-39,-9
282,-34,-11
283,-39,-6
284,-39,-6
285,-39,-4
286,-37,-6
287,-33,-6
288,-32,-2
289,-33,2
290,-28,3
291,-20,6
292,-15,8
293,-11,13
294,-12,17
295,-5,24
296,1,32
297,18,37
298,27,44
299,45,53
300,58,62
301,78,65
302,92,74
303,112,78
304,122,85
305,140,85
306,144,85
307,147,83
308,145,80
309,143,67
310,126,55
311,104,42
312,81,29
313,59,17
314,37,7
315,19,0
316,6,-3
317,-6,-9
318,-12,-14
319,-16,-16
320,-21,-16
321,-19,-16
322,-23,-16
323,-24,-18
324,-23,-14
325,-25,-17
326,-24,-16
327,-25,-14
328,-18,-13
329,-25,-12
330,-20,-14
331,-23,-12
332,-21,-8
333,-25,-8
334,-12,-12
335,-18,-11
336,-18,-7
337,-18,-11
338,-19,-12
339,-21,-11
340,-16,-12
341,-18,-13
342,-23,-14
343,-24,-16
344,-21,-16
345,-24,-16
346,-25,-17
347,-25,-18
348,-27,-19
349,-24,-22
350,-28,-21
351,-29,-21
352,-25,-21
353,-29,-23
354,-25,-22
355,-29,-23
356,-29,-21
357,-34,-19
358,-24,-24
359,-24,-23
360,-24,-21
361,-32,-22
362,-32,-22
363,-29,-22
364,-24,-23
365,-27,-21
366,-28,-23
367,-29,-22
368,-34,-19
369,-23,-24
370,-28,-21
371,-28,-19
372,-29,-17
373,-27,-23
374,-34,-21
375,-25,-22
376,-25,-18
377,-29,-21
378,-29,-21
379,-30,-21
380,-33,-17
381,-27,-19
382,-25,-19
383,-29,-19
384,-28,-19
385,-32,-18
386,-36,-18
387,-33,-18
388,-30,-18
389,-25,-18
390,-27,-13
391,-20,-7
392,-12,-2
393,6,2
394,1,1
395,-5,-2
396,-11,-3
397,-7,-6
398,-19,-7
399,-20,-14
400,-34,-13
401,-34,-14
402,-38,-18
403,-32,-23
404,-33,-17
405,-36,-19
406,-36,-19
407,-33,-22
408,-37,-23
409,-76,-21
410,-64,9
411,56,67
412,219,100
413,436,55
414,297,-62
415,21,-126
416,-77,-85
417,-52,-39
418,-34,-19
419,-38,-17
420,-45,-11
421,-50,-13
422,-51,-12
423,-49,-11
424,-39,-11
425,-45,-12
426,-43,-11
427,-47,-11
428,-43,-9
429,-46,-7
430,-38,-13
431,-39,-9
432,-39,-9
433,-43,-8
434,-45,-8
435,-43,-7
436,-36,-6
437,-36,-4
438,-33,-4
439,-30,-3
440,-29,0
441,-30,3
442,-29,6
443,-15,8
444,-12,16
445,-9,18
446,-9,24
447,2,32
448,6,42
449,33,45
450,43,55
451,59,62
452,74,70
453,89,78
454,103,85
455,118,89
456,136,94
457,143,93
458,148,88
459,148,81
460,140,73
461,121,58
462,107,43
463,83,29
464,59,17
465,36,4
466,18,-3
467,0,-6
468,-3,-13
469,-7,-13
470,-15,-19
471,-18,-21
472,-23,-19
473,-20,-22
474,-24,-21
475,-18,-21
476,-25,-17
477,-21,-18
478,-20,-19
479,-23,-17
480,-24,-14
481,-21,-14
482,-19,-14
483,-18,-16
484,-16,-12
485,-16,-13
486,-16,-13
487,-20,-11
488,-11,-11
489,-16,-12
490,-14,-14
491,-15,-14
492,-14,-16
493,-21,-13
494,-24,-14
495,-18,-17
496,-23,-18
497,-16,-19
498,-21,-21
499,-21,-23
500,-29,-17
501,-20,-22
502,-19,-22
503,-25,-22
504,-23,-19
505,-28,-22
506,-29,-22
507,-27,-21
508,-21,-22
509,-24,-21
510,-24,-22
511,-28,-23
512,-24,-22
513,-28,-22
514,-25,-23
515,-23,-21
516,-27,-19
517,-25,-21
518,-24,-23
519,-24,-23
520,-29,-17
521,-23,-19
522,-27,-19
523,-21,-22
524,-25,-17
525,-21,-24
526,-21,-18
527,-29,-17
528,-23,-19
529,-27,-17
530,-23,-22
531,-21,-19
532,-24,-22
533,-27,-18
534,-24,-19
535,-19,-18
536,-23,-17
537,-21,-19
538,-24,-18
539,-23,-18
540,-25,-16
541,-19,-18
542,-18,-16
543,-23,-18
544,-24,-18
545,-23,-19
546,-21,-14
547,-16,-11
548,-3,-3
549,-2,0
550,11,2
551,7,-2
552,1,-6
553,-1,0
554,-3,-4
555,-9,-9
556,-20,-13
557,-20,-16
558,-25,-17
559,-28,-17
560,-30,-14
561,-27,-18
562,-24,-19
563,-25,-18
564,-24,-19
565,-39,-22
566,-78,-13
567,-28,26
568,118,84
569,287,106
570,465,31
571,202,-88
572,-21,-114
573,-70,-62
574,-42,-28
575,-33,-17
576,-36,-14
577,-34,-11
578,-45,-13
579,-42,-13
580,-49,-8
581,-34,-12
582,-42,-9
583,-45,-11
584,-42,-9
585,-41,-12
586,-39,-11
587,-43,-7
588,-37,-8
589,-38,-7
590,-37,-9
591,-37,-7
592,-34,-4
593,-37,-3
594,-30,-4
595,-32,0
596,-27,1
597,-27,3
598,-25,2
599,-21,8
600,-28,13
601,-12,18
602,-11,22
603,1,27
604,3,34
605,18,39
606,30,50
607,46,55
608,64,64
609,81,70
610,95,78
611,110,84
612,119,90
613,132,90
614,152,89
615,153,85
616,145,80
617,132,67
618,116,53
619,90,40
620,73,27
621,50,16
622,29,1
623,14,-3
624,1,-11
625,-5,-14
626,-16,-17
627,-15,-21
628,-21,-19
629,-20,-22
630,-27,-23
631,-25,-24
632,-25,-19
633,-25,-21
634,-27,-22
635,-25,-19
636,-29,-19
637,-25,-19
638,-28,-17
639,-28,-14
640,-20,-14
641,-27,-16
642,-20,-17
643,-20,-13
644,-23,-16
645,-21,-12
646,-23,-14
647,-19,-14
648,-21,-13
649,-23,-16
650,-28,-16
651,-25,-17
652,-24,-17
653,-23,-18
654,-30,-19
655,-29,-21
656,-29,-22
657,-29,-23
658,-32,-22
659,-30,-23
660,-27,-21
661,-36,-23
662,-30,-26
663,-34,-24
664,-33,-24
665,-37,-22
666,-34,-26
667,-29,-22
668,-33,-23
669,-34,-23
670,-33,-27
671,-28,-24
672,-33,-21
673,-34,-23
674,-34,-24
675,-30,-24
676,-29,-23
677,-32,-22
678,-38,-22
679,-33,-23
680,-30,-22
681,-37,-22
682,-32,-23
683,-29,-26
684,-32,-22
685,-39,-21
686,-28,-24
687,-32,-23
688,-33,-22
689,-36,-21
690,-33,-24
691,-34,-22
692,-33,-21
693,-32,-21
694,-37,-23
695,-33,-23
696,-32,-21
697,-32,-17
698,-27,-13
699,-18,-6
700,-10,0
701,1,0
702,-6,-6
703,-14,-8
704,-18,-6
705,-15,-12
706,-33,-16
707,-36,-19
708,-36,-18
709,-41,-23
710,-39,-22
711,-43,-21
712,-36,-24
713,-38,-23
714,-38,-24
715,-39,-23
716,-68,-26
717,-79,-2
718,14,45
719,171,100
720,390,84
721,359,-22
722,74,-114
723,-74,-101
724,-77,-53
725,-55,-24
726,-50,-19
727,-47,-17
728,-55,-18
729,-55,-16
730,-56,-17
731,-51,-14
732,-59,-13
733,-54,-16
734,-55,-18
735,-50,-14
736,-56,-11
737,-52,-13
738,-54,-14
739,-50,-14
740,-50,-12
741,-50,-12
742,-54,-12
743,-45,-12
744,-46,-9
745,-45,-9
746,-37,-11
747,-33,-6
748,-45,0
749,-36,1
750,-36,2
751,-28,4
752,-20,11
753,-15,12
754,-12,23
755,0,26
756,15,34
757,24,42
758,43,48
759,60,55
760,81,63
761,92,70
762,108,74
763,122,77
764,132,79
765,143,77
766,144,73
767,140,67
768,131,55
769,112,43
770,94,29
771,65,14
772,46,8
773,21,1
774,12,-12
775,-3,-14
776,-12,-17
777,-21,-19
778,-21,-24
779,-33,-21
780,-32,-23
781,-28,-22
782,-30,-23
783,-30,-22
784,-36,-21
785,-34,-19
786,-33,-21
787,-27,-21
788,-28,-18
789,-28,-16
790,-29,-17
791,-30,-17
792,-27,-14
793,-23,-13
794,-24,-14
795,-23,-16
796,-24,-14
797,-20,-16
798,-25,-16
799,-18,-17
800,-27,-13
801,-25,-19
802,-24,-19
803,-25,-22
804,-30,-17
805,-34,-18
806,-21,-22
807,-32,-23
808,-28,-19
809,-32,-22
810,-30,-23
811,-32,-22
812,-28,-22
813,-29,-23
814,-30,-24
815,-29,-23
816,-33,-23
817,-36,-22
818,-30,-22
819,-30,-22
820,-32,-22
821,-28,-22
822,-32,-24
823,-34,-23
824,-33,-22
825,-25,-21
826,-34,-23
827,-24,-24
828,-28,-21
829,-34,-24
830,-32,-22
831,-32,-23
832,-28,-21
833,-34,-22
834,-28,-23
835,-36,-21
836,-32,-23
837,-32,-19
838,-34,-23
839,-32,-22
840,-36,-23
841,-32,-22
842,-30,-21
843,-28,-13
844,-23,-7
845,-10,-3
846,-2,-1
847,-2,-4
848,-9,-7
849,-6,-8
850,-12,-9
851,-27,-14
852,-29,-17
853,-38,-19
854,-33,-21
855,-34,-22
856,-39,-23
857,-43,-21
858,-43,-24
859,-32,-24
860,-32,-21
861,-38,-29
862,-85,-13
863,-60,12
864,78,83
865,267,95
866,442,45
867,276,-89
868,-14,-124
869,-79,-85
870,-59,-37
871,-46,-17
872,-45,-16
873,-42,-17
874,-49,-16
875,-51,-14
876,-50,-17
877,-51,-13
878,-52,-13
879,-43,-14
880,-46,-11
881,-46,-13
882,-49,-12
883,-47,-13
884,-43,-9
885,-46,-9
886,-39,-12
887,-45,-9
888,-42,-7
889,-39,-7
890,-39,-9
891,-37,-4
892,-39,-2
893,-29,-1
894,-32,1
895,-27,4
896,-23,8
897,-16,12
898,-11,18
899,-3,24
900,9,31
901,20,37
902,30,45
903,39,53
904,56,59
905,74,69
906,96,73
907,114,80
908,125,86
909,138,89
910,141,85
911,150,79
912,154,77
913,143,63
914,121,49
915,96,36
916,73,23
917,49,11
918,34,1
919,15,-6
920,2,-12
921,-7,-14
922,-15,-19
923,-18,-22
924,-19,-22
925,-19,-23
926,-33,-22
927,-24,-23
928,-24,-18
929,-28,-21
930,-28,-22
931,-28,-21
932,-25,-19
933,-28,-16
934,-18,-17
935,-24,-14
936,-27,-16
937,-18,-16
938,-20,-17
939,-18,-14
940,-19,-12
941,-16,-14
942,-16,-16
943,-16,-16
944,-16,-16
945,-16,-16
946,-21,-17
947,-25,-17
948,-21,-18
949,-19,-19
950,-21,-21
951,-24,-21
952,-27,-21
953,-27,-22
954,-25,-22
955,-21,-23
956,-21,-21
957,-27,-22
958,-25,-22
959,-30,-24
960,-24,-23
961,-27,-23
962,-24,-23
963,-20,-23
964,-29,-22
965,-25,-23
966,-25,-21
967,-29,-24
968,-21,-21
969,-28,-21
970,-23,-23
971,-27,-22
972,-21,-22
973,-23,-22
974,-25,-23
975,-28,-21
976,-27,-19
977,-21,-23
978,-25,-22
979,-25,-21
980,-27,-21
981,-25,-22
982,-29,-22
983,-25,-21
984,-24,-19
985,-27,-18
986,-29,-22
987,-25,-22
988,-24,-19
989,-30,-17
990,-29,-21
991,-29,-18
992,-27,-18
993,-24,-18
994,-33,-19
995,-27,-18
996,-28,-12
997,-24,-8
998,-9,-6
999,-1,0
1000,2,4
1001,0,0
1002,-9,-3
1003,-10,-2
1004,-6,-6
1005,-10,-11
1006,-24,-14
1007,-32,-16
1008,-36,-14
1009,-33,-17
1010,-33,-18
1011,-29,-19
1012,-32,-18
1013,-33,-18
1014,-28,-19
1015,-49,-23
1016,-83,-12
1017,-28,29
1018,117,90
1019,283,104
1020,510,23
1021,159,-109
1022,-50,-121
1023,-77,-59
1024,-47,-23
1025,-36,-16
1026,-43,-16
1027,-45,-14
1028,-42,-13
1029,-43,-13
1030,-51,-12
1031,-49,-11
1032,-45,-8
1033,-43,-12
1034,-42,-9
1035,-45,-9
1036,-43,-9
1037,-45,-8
1038,-39,-11
1039,-39,-8
1040,-32,-6
1041,-39,-7
1042,-45,-7
1043,-39,-4
1044,-38,-4
1045,-30,-2
1046,-29,-2
1047,-28,0
1048,-24,3
1049,-19,6
1050,-20,12
1051,-9,17
1052,-5,22
1053,2,26
1054,9,34
1055,19,38
1056,32,50
1057,42,57
1058,68,62
1059,76,70
1060,95,78
1061,109,84
1062,126,86
1063,140,90
1064,144,90
1065,149,88
1066,145,78
1067,139,65
1068,121,52
1069,95,39
1070,70,24
1071,52,12
1072,32,2
1073,19,-6
1074,2,-12
1075,-5,-14
1076,-14,-14
1077,-11,-19
1078,-14,-19
1079,-20,-19
1080,-21,-17
1081,-24,-24
1082,-19,-21
1083,-21,-17
1084,-16,-17
1085,-23,-17
1086,-18,-18
1087,-18,-17
1088,-20,-14
1089,-18,-12
1090,-12,-13
1091,-16,-12
1092,-15,-11
1093,-16,-11
1094,-14,-13
1095,-16,-8
1096,-9,-11
1097,-14,-11
1098,-12,-14
1099,-14,-13
1100,-15,-16
1101,-14,-13
1102,-16,-16
1103,-14,-16
1104,-21,-16
1105,-21,-17
1106,-21,-19
1107,-20,-19
1108,-21,-17
1109,-19,-18
1110,-23,-21
1111,-20,-21
1112,-20,-22
1113,-20,-22
1114,-23,-21
1115,-16,-21
1116,-20,-17
1117,-19,-21
1118,-24,-19
1119,-21,-24
1120,-27,-17
1121,-18,-22
1122,-19,-21
1123,-21,-21
1124,-24,-17
1125,-19,-24
1126,-20,-19
1127,-21,-21
1128,-14,-18
1129,-18,-21
1130,-16,-21
1131,-21,-19
1132,-24,-16
1133,-23,-18
1134,-19,-18
1135,-19,-21
1136,-18,-18
1137,-14,-19
1138,-20,-18
1139,-19,-16
1140,-18,-16
1141,-20,-18
1142,-16,-18
1143,-10,-21
1144,-23,-14
1145,-20,-16
1146,-20,-16
1147,-23,-17
1148,-20,-16
1149,-14,-21
1150,-15,-9
1151,-6,-6
1152,1,0
1153,5,1
1154,18,1
1155,9,-2
1156,0,-3
1157,0,-3
1158,-1,-7
1159,-12,-14
1160,-16,-16
1161,-18,-17
1162,-24,-16
1163,-24,-16
1164,-23,-17
1165,-23,-17
1166,-27,-21
1167,-18,-17
1168,-23,-21
1169,-59,-19
1170,-69,-3
1171,41,63
1172,194,103
1173,423,94
1174,381,-45
1175,50,-120
1176,-69,-95
1177,-55,-39
1178,-37,-19
1179,-32,-16
1180,-38,-12
1181,-33,-12
1182,-43,-12
1183,-42,-11
1184,-42,-12
1185,-38,-11
1186,-38,-13
1187,-36,-9
1188,-38,-8
1189,-38,-8
1190,-38,-11
1191,-41,-9
1192,-34,-9
1193,-36,-7
1194,-36,-9
1195,-39,-8
1196,-33,-8
1197,-37,-3
1198,-29,-7
1199,-30,-1
1200,-29,0
1201,-29,2
1202,-23,-1
1203,-20,6
1204,-14,12
1205,-11,16
1206,-7,18
1207,1,23
1208,14,32
1209,24,40
1210,41,45
1211,54,55
1212,67,63
1213,81,68
1214,98,73
1215,112,79
1216,128,84
1217,140,84
1218,145,81
1219,147,78
1220,143,69
1221,128,59
1222,110,44
1223,92,28
1224,65,19
1225,42,9
1226,23,-3
1227,9,-6
1228,-6,-11
1229,-5,-17
1230,-14,-21
1231,-18,-21
1232,-24,-21
1233,-23,-22
1234,-28,-23
1235,-20,-23
1236,-25,-19
1237,-25,-22
1238,-24,-22
1239,-29,-21
1240,-29,-16
1241,-24,-17
1242,-23,-17
1243,-21,-17
1244,-19,-14
1245,-23,-16
1246,-24,-14
1247,-20,-13
1248,-15,-13
1249,-18,-13
1250,-19,-14
1251,-19,-16
1252,-16,-16
1253,-19,-14
1254,-18,-17
1255,-23,-17
1256,-23,-18
1257,-23,-18
1258,-21,-24
1259,-27,-17
1260,-30,-21
1261,-20,-21
1262,-27,-23
1263,-25,-21
1264,-29,-22
1265,-25,-23
1266,-32,-21
1267,-23,-23
1268,-27,-21
1269,-24,-21
1270,-29,-22
1271,-32,-23
1272,-28,-19
1273,-29,-22
1274,-23,-23
1275,-25,-22
1276,-29,-21
1277,-30,-22
1278,-30,-22
1279,-29,-19
