,0,1
0,-35,21
1,-20,20
2,-16,18
3,-21,16
4,-23,15
5,-21,17
6,-17,16
7,-17,13
8,-15,14
9,-13,12
10,-16,14
11,-7,10
12,-7,11
13,-3,12
14,-4,11
15,2,7
16,0,10
17,9,9
18,8,9
19,16,7
20,15,7
21,21,8
22,24,7
23,27,6
24,27,5
25,31,8
26,29,8
27,27,8
28,26,11
29,22,11
30,14,13
31,10,11
32,5,11
33,-4,14
34,-2,12
35,-12,12
36,-12,11
37,-15,11
38,-17,13
39,-15,12
40,-12,11
41,-16,13
42,-12,11
43,-14,10
44,-17,13
45,-14,13
46,-11,11
47,-18,10
48,-12,8
49,-14,12
50,-8,9
51,-6,9
52,-8,8
53,-9,9
54,-11,7
55,-10,8
56,-11,8
57,-11,9
58,-12,8
59,-11,6
60,-17,9
61,-20,8
62,-5,8
63,-10,6
64,-11,9
65,-10,6
66,-3,10
67,4,8
68,5,8
69,10,8
70,6,10
71,4,4
72,4,2
73,-2,2
74,0,1
75,0,1
76,-6,4
77,-18,11
78,-17,8
79,-20,11
80,-26,11
81,-31,11
82,-25,9
83,-28,12
84,-18,7
85,-1,-3
86,51,-10
87,113,-9
88,112,-1
89,30,6
90,-47,17
91,-52,13
92,-33,17
93,-21,14
94,-26,14
95,-17,9
96,-15,14
97,-18,11
98,-20,10
99,-9,9
100,-10,10
101,-7,9
102,-8,8
103,-7,7
104,-5,7
105,0,7
106,0,8
107,2,6
108,4,4
109,4,6
110,10,3
111,4,3
112,19,3
113,22,1
114,21,3
115,22,0
116,20,0
117,26,3
118,28,3
119,25,3
120,24,5
121,17,6
122,9,7
123,3,7
124,2,8
125,-2,8
126,-8,8
127,-10,6
128,-15,9
129,-10,8
130,-15,8
131,-13,7
132,-18,6
133,-15,8
134,-19,8
135,-13,7
136,-17,7
137,-17,7
138,-15,6
139,-12,6
140,-12,6
141,-12,7
142,-13,7
143,-12,5
144,-10,7
145,-14,7
146,-10,7
147,-10,4
148,-12,7
149,-13,5
150,-13,7
151,-16,5
152,-11,4
153,-15,7
154,-14,6
155,-13,4
156,-7,7
157,-1,7
158,5,6
159,7,7
160,2,7
161,0,5
162,3,0
163,0,0
164,-2,-2
165,-7,0
166,-6,0
167,-13,6
168,-23,7
169,-24,8
170,-22,8
171,-23,7
172,-25,8
173,-22,10
174,-16,6
175,-8,-7
176,32,-15
177,98,-13
178,131,1
179,57,5
180,-34,17
181,-59,22
182,-34,16
183,-26,16
184,-25,13
185,-20,13
186,-20,11
187,-20,9
188,-19,8
189,-22,10
190,-12,8
191,-15,8
192,-8,5
193,-10,8
194,-6,4
195,-11,6
196,-3,3
197,-4,3
198,0,2
199,1,0
200,3,1
201,6,0
202,9,0
203,14,-2
204,15,-2
205,20,-1
206,19,0
207,27,-4
208,21,0
209,23,1
210,16,2
211,14,3
212,7,5
213,3,6
214,-2,7
215,-9,7
216,-15,7
217,-17,7
218,-12,7
219,-17,7
220,-20,7
221,-21,7
222,-22,8
223,-28,5
224,-19,8
225,-19,5
226,-16,7
227,-19,5
228,-22,8
229,-18,6
230,-16,6
231,-17,4
232,-18,5
233,-19,6
234,-18,5
235,-17,4
236,-18,4
237,-21,5
238,-19,3
239,-27,3
240,-15,2
241,-18,4
242,-11,2
243,-8,4
244,-3,3
245,-2,5
246,-2,5
247,0,2
248,-3,0
249,-10,-2
250,-15,-1
251,-6,-4
252,-11,0
253,-15,2
254,-24,2
255,-27,3
256,-33,4
257,-29,5
258,-29,5
259,-32,4
260,-33,1
261,-29,-4
262,11,-17
263,95,-18
264,154,-4
265,99,12
266,0,21
267,-43,19
268,-36,14
269,-23,10
270,-30,8
271,-24,2
272,-29,7
273,-21,3
274,-26,4
275,-23,2
276,-25,2
277,-23,3
278,-19,3
279,-19,1
280,-21,1
281,-13,0
282,-10,2
283,-6,0
284,-4,1
285,-1,0
286,3,0
287,6,-4
288,5,0
289,15,-1
290,16,-1
291,19,-3
292,20,-3
293,22,0
294,22,0
295,20,0
296,17,3
297,11,4
298,5,6
299,2,5
300,-1,8
301,-5,9
302,-11,8
303,-10,6
304,-17,10
305,-10,10
306,-15,10
307,-15,7
308,-18,8
309,-17,10
310,-17,10
311,-13,9
312,-15,7
313,-13,8
314,-15,9
315,-12,7
316,-12,8
317,-12,7
318,-13,7
319,-11,5
320,-16,9
321,-7,8
322,-11,7
323,-7,6
324,-2,6
325,0,11
326,4,7
327,7,6
328,3,9
329,1,5
330,0,2
331,-2,1
332,-3,0
333,-4,2
334,-5,3
335,-11,7
336,-17,7
337,-22,9
338,-22,7
339,-25,8
340,-22,6
341,-21,11
342,-17,6
343,-5,1
344,50,-11
345,125,-13
346,134,-9
347,52,6
348,-35,21
349,-49,20
350,-35,17
351,-30,16
352,-20,13
353,-18,14
354,-19,11
355,-19,11
356,-18,10
357,-19,11
358,-10,9
359,-13,9
360,-10,8
361,-8,8
362,-8,7
363,-2,6
364,-4,7
365,0,6
366,3,5
367,11,3
368,7,5
369,17,5
370,14,3
371,22,1
372,23,1
373,26,4
374,30,3
375,32,2
376,29,4
377,26,6
378,23,5
379,16,6
380,12,7
381,3,7
382,0,7
383,-8,6
384,-11,8
385,-14,10
386,-12,8
387,-17,7
388,-14,8
389,-18,8
390,-17,10
391,-19,8
392,-12,9
393,-14,9
394,-11,8
395,-14,7
396,-15,9
397,-12,9
398,-12,9
399,-12,7
400,-13,7
401,-11,7
402,-14,7
403,-9,6
404,-14,5
405,-8,5
406,-4,5
407,-1,2
408,0,8
409,11,5
410,0,6
411,-2,0
412,-6,-1
413,-8,0
414,-7,0
415,-7,0
416,-12,1
417,-22,5
418,-27,4
419,-29,3
420,-27,5
421,-26,6
422,-28,5
423,-29,3
424,-26,-1
425,-8,-12
426,82,-17
427,170,-8
428,121,10
429,12,21
430,-43,23
431,-40,16
432,-31,12
433,-23,9
434,-25,5
435,-27,2
436,-28,2
437,-27,3
438,-21,1
439,-23,0
440,-18,0
441,-20,-1
442,-13,-2
443,-17,0
444,-9,-4
445,-12,-1
446,-6,-5
447,-4,-5
448,-1,-5
449,1,-5
450,8,-6
451,10,-8
452,13,-6
453,17,-8
454,18,-7
455,23,-8
456,26,-5
457,24,-6
458,22,-2
459,19,-4
460,10,0
461,6,1
462,2,1
463,-2,2
464,-9,2
465,-15,3
466,-21,6
467,-15,4
468,-20,6
469,-18,6
470,-23,5
471,-19,5
472,-21,7
473,-17,7
474,-19,8
475,-17,6
476,-16,5
477,-19,8
478,-16,6
479,-17,6
480,-17,4
481,-14,7
482,-11,3
483,-18,5
484,-15,4
485,-11,5
486,-11,4
487,-6,4
488,-3,4
489,0,6
490,1,6
491,-2,3
492,0,1
493,-5,0
494,-5,-3
495,-15,0
496,-5,0
497,-12,6
498,-20,5
499,-25,5
500,-30,7
501,-26,7
502,-25,7
503,-25,5
504,-30,8
505,-24,4
506,8,-4
507,100,-17
508,160,-18
509,91,-3
510,-11,12
511,-60,17
512,-52,16
513,-34,15
514,-27,10
515,-26,7
516,-27,7
517,-24,7
518,-24,8
519,-20,7
520,-18,5
521,-18,6
522,-14,4
523,-13,2
524,-13,2
525,-10,3
526,-3,3
527,-2,2
528,0,1
529,3,0
530,1,3
531,12,0
532,14,1
533,15,0
534,16,0
535,23,-1
536,20,0
537,24,0
538,23,1
539,17,0
540,16,0
541,11,4
542,5,3
543,0,4
544,-6,4
545,-13,5
546,-17,3
547,-20,4
548,-18,5
549,-18,6
550,-21,6
551,-23,3
552,-22,6
553,-24,7
554,-20,5
555,-25,5
556,-21,4
557,-21,5
558,-20,4
559,-18,4
560,-20,3
561,-19,3
562,-20,3
563,-18,0
564,-20,2
565,-16,2
566,-21,2
567,-13,0
568,-14,2
569,-6,2
570,-7,1
571,0,0
572,-7,4
573,-4,0
574,-7,-4
575,-12,-5
576,-12,-5
577,-12,-2
578,-13,0
579,-22,2
580,-26,1
581,-36,4
582,-19,1
583,-31,0
584,-30,3
585,-30,1
586,-35,0
587,-10,-13
588,78,-23
589,163,-16
590,142,3
591,49,15
592,-31,23
593,-32,15
594,-25,13
595,-22,6
596,-26,7
597,-20,5
598,-29,6
599,-24,2
600,-21,4
601,-19,3
602,-18,2
603,-17,1
604,-17,2
605,-13,2
606,-10,0
607,-9,0
608,-5,-1
609,-5,1
610,5,0
611,2,-1
612,6,-1
613,6,-1
614,12,-2
615,14,-1
616,23,-2
617,18,0
618,23,-1
619,22,0
620,20,1
621,16,2
622,13,3
623,8,4
624,2,4
625,-4,7
626,-12,7
627,-12,7
628,-17,6
629,-19,9
630,-18,6
631,-18,10
632,-16,9
633,-16,11
634,-19,9
635,-20,9
636,-18,8
637,-18,12
638,-14,9
639,-12,9
640,-12,9
641,-12,8
642,-13,9
643,-10,8
644,-12,7
645,-12,9
646,-15,7
647,-13,8
648,-17,9
649,-4,10
650,-9,7
651,-1,9
652,0,8
653,3,12
654,4,9
655,3,9
656,2,4
657,0,2
658,-7,2
659,-5,3
660,-5,6
661,-11,9
662,-18,10
663,-23,9
664,-31,11
665,-21,11
666,-27,9
667,-23,10
668,-26,7
669,-18,11
670,31,-6
671,126,-12
672,163,-10
673,80,2
674,-24,14
675,-65,18
676,-44,14
677,-31,16
678,-26,13
679,-28,12
680,-26,10
681,-22,12
682,-19,9
683,-19,10
684,-15,6
685,-19,11
686,-7,7
687,-12,6
688,-8,5
689,-10,5
690,-8,7
691,-6,4
692,3,4
693,3,3
694,5,3
695,6,2
696,14,3
697,19,2
698,22,2
699,22,1
700,26,2
701,29,3
702,24,4
703,24,4
704,21,6
705,16,7
706,5,8
707,0,9
708,-1,9
709,-9,11
710,-16,10
711,-18,11
712,-16,10
713,-16,10
714,-17,9
715,-17,9
716,-18,11
717,-18,13
718,-16,9
719,-19,10
720,-15,8
721,-19,14
722,-13,9
723,-18,9
724,-17,9
725,-18,8
726,-16,9
727,-12,7
728,-14,7
729,-16,8
730,-14,7
731,-19,7
732,-9,7
733,-15,7
734,-8,7
735,-8,4
736,-6,9
737,2,7
738,1,8
739,4,7
740,-2,6
741,-1,3
742,-2,1
743,-4,0
744,-6,0
745,-6,3
746,-12,6
747,-15,7
748,-26,7
749,-25,8
750,-25,7
751,-22,6
752,-26,9
753,-22,10
754,-12,6
755,29,-5
756,110,-17
757,151,-18
758,78,-5
759,-26,11
760,-65,16
761,-47,17
762,-40,15
763,-20,12
764,-22,10
765,-20,12
766,-20,8
767,-18,11
768,-15,9
769,-14,10
770,-15,8
771,-12,5
772,-13,7
773,-3,5
774,-8,6
775,0,3
776,0,3
777,1,4
778,4,2
779,11,1
780,12,3
781,17,0
782,20,1
783,22,1
784,26,2
785,30,0
786,30,2
787,32,0
788,26,2
789,30,3
790,22,5
791,15,5
792,4,5
793,0,7
794,-5,8
795,-5,6
796,-15,5
797,-12,8
798,-19,4
799,-16,7
800,-15,6
801,-16,8
802,-13,8
803,-11,6
804,-14,7
805,-12,9
806,-13,7
807,-10,6
808,-12,6
809,-12,6
810,-15,7
811,-7,5
812,-10,4
813,-12,5
814,-11,5
815,-12,4
816,-8,4
817,-6,4
818,-10,4
819,-11,1
820,-10,4
821,-13,4
822,-11,4
823,-12,2
824,-12,5
825,-12,1
826,-12,7
827,-4,3
828,0,4
829,3,6
830,4,6
831,8,5
832,7,6
833,5,1
834,0,0
835,0,-1
836,0,0
837,-5,4
838,-10,6
839,-16,5
840,-19,7
841,-24,8
842,-19,5
843,-22,8
844,-14,7
845,-21,6
846,-3,2
847,47,-11
848,124,-18
849,144,-15
850,71,-4
851,-30,15
852,-57,17
853,-36,16
854,-22,14
855,-16,12
856,-18,11
857,-18,12
858,-17,10
859,-13,10
860,-15,10
861,-9,9
862,-7,7
863,-7,7
864,-4,6
865,-4,9
866,1,6
867,1,6
868,2,4
869,6,7
870,8,6
871,15,4
872,20,4
873,24,4
874,26,3
875,31,0
876,25,5
877,37,2
878,33,3
879,34,3
880,27,5
881,25,7
882,22,8
883,21,6
884,10,8
885,3,9
886,-2,8
887,-7,7
888,-7,8
889,-13,9
890,-12,8
891,-12,6
892,-12,12
893,-12,9
894,-8,10
895,-12,8
896,-12,9
897,-13,8
898,-14,11
899,-9,8
900,-10,10
901,-8,9
902,-10,7
903,-10,7
904,-8,7
905,-5,7
906,-6,6
907,-8,7
908,-9,5
909,-14,8
910,-10,4
911,-12,6
912,-3,6
913,-13,7
914,-6,6
915,-11,8
916,-5,5
917,-9,8
918,-9,6
919,-11,4
920,-11,6
921,-10,8
922,-10,6
923,-12,5
924,-10,5
925,-3,6
926,0,8
927,11,6
928,11,7
929,9,10
930,11,3
931,5,0
932,-1,0
933,-1,0
934,-1,0
935,-3,3
936,-14,5
937,-19,7
938,-19,7
939,-17,7
940,-18,6
941,-18,7
942,-19,5
943,-15,3
944,7,-6
945,79,-17
946,142,-18
947,117,-14
948,7,10
949,-59,18
950,-46,14
951,-22,12
952,-18,12
953,-14,8
954,-16,10
955,-12,8
956,-12,8
957,-14,8
958,-10,8
959,-11,6
960,-6,6
961,-8,6
962,-1,5
963,-2,1
964,2,5
965,3,3
966,9,5
967,9,0
968,15,1
969,16,2
970,21,1
971,25,0
972,27,1
973,27,1
974,29,0
975,27,1
976,29,2
977,29,4
978,31,2
979,27,4
980,23,3
981,12,10
982,12,6
983,3,8
984,0,7
985,-4,7
986,-5,6
987,-8,8
988,-9,6
989,-13,8
990,-10,7
991,-7,7
992,-9,6
993,-6,8
994,-7,7
995,-7,6
996,-9,6
997,-6,8
998,-8,7
999,-4,6
1000,-8,5
1001,-6,8
1002,-7,5
1003,-6,5
1004,-8,5
1005,-4,5
1006,-6,5
1007,-7,3
1008,-10,5
1009,-7,4
1010,-6,5
1011,-7,3
1012,-9,5
1013,-6,3
1014,-12,7
1015,-6,2
1016,-10,6
1017,-6,3
1018,-11,6
1019,-9,2
1020,-11,6
1021,-8,4
1022,-9,4
1023,-9,4
1024,-12,2
1025,-12,5
1026,-8,5
1027,-7,3
1028,-9,3
1029,-9,2
1030,-12,4
1031,-11,3
1032,-11,3
1033,-12,3
1034,-5,2
1035,0,0
1036,-3,6
1037,8,4
1038,5,7
1039,7,5
1040,1,1
1041,0,-1
1042,-5,-2
1043,-2,-3
1044,-3,-1
1045,-8,1
1046,-15,2
1047,-21,2
1048,-22,2
1049,-21,4
1050,-22,4
1051,-21,4
1052,-24,2
1053,-14,-7
1054,23,-25
1055,115,-15
1056,150,-2
1057,85,18
1058,-3,17
1059,-37,19
1060,-32,10
1061,-24,9
1062,-22,7
1063,-19,5
1064,-19,4
1065,-18,4
1066,-20,3
1067,-17,3
1068,-20,4
1069,-13,3
1070,-15,3
1071,-10,1
1072,-9,0
1073,-11,3
1074,-2,0
1075,-3,0
1076,-2,-1
1077,0,0
1078,4,-2
1079,5,-1
1080,11,-2
1081,12,-2
1082,15,-6
1083,19,-7
1084,21,-7
1085,26,-5
1086,25,-7
1087,19,-6
1088,22,-5
1089,17,-1
1090,16,-2
1091,5,-1
1092,2,-3
1093,-6,-1
1094,-7,0
1095,-13,0
1096,-11,0
1097,-17,0
1098,-17,0
1099,-19,0
1100,-20,0
1101,-18,2
1102,-17,1
1103,-16,0
1104,-14,0
1105,-18,3
1106,-12,0
1107,-15,0
1108,-11,0
1109,-15,0
1110,-12,0
1111,-13,0
1112,-11,0
1113,-15,0
1114,-11,0
1115,-11,0
1116,-13,0
1117,-12,0
1118,-13,0
1119,-11,-1
1120,-14,-1
1121,-13,-1
1122,-11,0
1123,-8,-1
1124,-12,-1
1125,-12,0
1126,-15,0
1127,-14,0
1128,-12,0
1129,-11,0
1130,-12,0
1131,-12,-1
1132,-13,0
1133,-11,0
1134,-12,0
1135,-9,-2
1136,-16,0
1137,-6,-1
1138,-5,1
1139,3,1
1140,7,1
1141,6,2
1142,7,2
1143,6,-1
1144,0,-4
1145,-3,-4
1146,-1,-3
1147,-5,-3
1148,-9,0
1149,-14,0
1150,-17,0
1151,-20,0
1152,-23,0
1153,-20,0
1154,-16,0
1155,-18,-1
1156,-15,-4
1157,25,-20
1158,121,-25
1159,172,-13
1160,92,0
1161,-11,7
1162,-53,6
1163,-36,1
1164,-23,3
1165,-21,3
1166,-18,1
1167,-17,2
1168,-17,2
1169,-13,0
1170,-15,2
1171,-8,0
1172,-10,1
1173,-8,2
1174,-8,0
1175,-2,-1
1176,-6,2
1177,3,0
1178,4,1
1179,7,0
1180,8,0
1181,12,0
1182,15,1
1183,24,-2
1184,24,-2
1185,27,0
1186,30,-3
1187,35,-4
1188,33,-2
1189,37,-2
1190,35,-2
1191,32,-3
1192,27,0
1193,20,0
1194,15,0
1195,12,0
1196,3,0
1197,0,3
1198,-5,0
1199,-13,1
1200,-8,0
1201,-8,4
1202,-10,0
1203,-12,2
1204,-9,-1
1205,-14,3
1206,-9,2
1207,-12,1
1208,-7,0
1209,-12,2
1210,-9,0
1211,-12,0
1212,-7,0
1213,-6,2
1214,-8,0
1215,-7,0
1216,-8,0
1217,-8,0
1218,-8,0
1219,-6,-1
1220,-6,0
1221,-9,-1
1222,-8,0
1223,-11,0
1224,-7,0
1225,-10,0
1226,-6,0
1227,-12,0
1228,-6,-1
1229,-12,1
1230,-5,0
1231,-8,0
1232,-8,0
1233,-11,0
1234,-11,0
1235,-10,0
1236,-8,0
1237,-6,0
1238,-10,0
1239,-8,-1
1240,-6,2
1241,5,1
1242,4,3
1243,11,1
1244,13,4
1245,6,4
1246,9,1
1247,9,-2
1248,3,-2
1249,2,-2
1250,1,-1
1251,-2,0
1252,-8,0
1253,-11,2
1254,-15,2
1255,-15,1
1256,-14,2
1257,-14,5
1258,-18,6
1259,-13,2
1260,-1,-5
1261,82,-17
1262,153,-20
1263,139,-9
1264,27,6
1265,-40,13
1266,-44,9
1267,-23,9
1268,-16,8
1269,-14,8
1270,-12,7
1271,-12,6
1272,-14,6
1273,-10,8
1274,-7,4
1275,-11,6
1276,-8,3
1277,-5,7
1278,-3,2
1279,-2,2
