,0,1
0,-3,-2
1,-18,-2
2,-21,-7
3,-13,-12
4,-19,-9
5,-8,5
6,-6,3
7,1,-1
8,12,0
9,31,3
10,29,2
11,20,-3
12,3,-7
13,-1,-10
14,-12,-10
15,-12,-17
16,-21,-17
17,-23,-17
18,-26,-18
19,-30,-22
20,-25,-21
21,-31,-17
22,-21,-21
23,-31,-22
24,-23,-22
25,-23,-24
26,-34,-25
27,-35,11
28,50,44
29,169,-12
30,247,-107
31,131,-210
32,-78,-250
33,-118,-188
34,-76,-103
35,-48,-51
36,-26,-32
37,-30,-22
38,-39,-18
39,-8,-17
40,10,-15
41,-24,-9
42,-34,-5
43,-39,-5
44,-36,-4
45,-20,-3
46,-23,-2
47,-6,0
48,-20,5
49,14,0
50,23,7
51,-13,10
52,10,17
53,-15,25
54,-14,31
55,8,35
56,19,45
57,15,52
58,26,59
59,40,70
60,56,77
61,56,83
62,52,90
63,37,95
64,46,94
65,57,89
66,53,77
67,61,58
68,69,41
69,42,29
70,17,19
71,3,10
72,-10,5
73,-8,1
74,-18,-2
75,32,-11
76,37,-9
77,-24,-2
78,-17,-4
79,-21,-4
80,-32,-2
81,-24,-2
82,-13,-4
83,-6,-5
84,-8,-7
85,1,-5
86,-19,-4
87,61,-17
88,-2,-5
89,-31,-5
90,-18,-7
91,-25,-11
92,-25,-9
93,-24,-5
94,-17,-9
95,-7,-7
96,-14,-10
97,-2,-11
98,-7,-11
99,12,-14
100,6,-10
101,-34,-7
102,-35,-5
103,-7,-2
104,17,1
105,-4,0
106,32,-2
107,54,-3
108,1,-2
109,-15,-2
110,0,-7
111,2,-10
112,0,-14
113,-36,-12
114,-6,-18
115,-28,-17
116,-36,-19
117,-34,-16
118,-51,-18
119,-39,-22
120,10,-21
121,-30,-16
122,-46,-16
123,-35,-24
124,-43,-22
125,-41,19
126,59,57
127,176,-7
128,257,-92
129,92,-201
130,-113,-241
131,-109,-181
132,-71,-97
133,-63,-43
134,-34,-24
135,-18,-21
136,-17,-14
137,-37,-7
138,-41,-5
139,-36,-5
140,-41,-4
141,-34,-2
142,-25,-1
143,-18,0
144,-19,3
145,-14,8
146,-9,9
147,-6,10
148,-9,18
149,-13,21
150,-2,27
151,-1,29
152,2,36
153,-2,41
154,13,48
155,8,59
156,13,65
157,32,75
158,36,83
159,42,85
160,48,94
161,46,95
162,45,96
163,51,89
164,53,78
165,51,65
166,42,49
167,34,36
168,20,25
169,7,18
170,-1,11
171,-2,5
172,-13,0
173,-17,0
174,-13,-1
175,-10,-3
176,-14,0
177,-4,0
178,-4,0
179,-18,-1
180,-13,-1
181,-8,1
182,-10,-3
183,-8,0
184,-10,-2
185,-12,-2
186,-10,-2
187,0,-3
188,-6,-3
189,-8,-3
190,-14,-3
191,-10,-5
192,-8,-5
193,-9,-4
194,-10,-5
195,-13,-7
196,-14,-8
197,-15,-7
198,-12,-3
199,-1,-1
200,4,3
201,10,4
202,18,5
203,21,1
204,12,-1
205,19,-1
206,18,-5
207,3,-8
208,-2,-11
209,-26,-14
210,-29,-19
211,-28,-19
212,-29,-17
213,-28,-19
214,-28,-17
215,-37,-19
216,-36,-17
217,-24,-18
218,-25,-18
219,-24,-21
220,-32,-21
221,-34,12
222,36,45
223,130,-3
224,225,-87
225,109,-195
226,-91,-244
227,-139,-198
228,-98,-110
229,-50,-51
230,-32,-25
231,-26,-24
232,-30,-12
233,-31,-10
234,-20,-10
235,-24,-8
236,-21,-5
237,-21,-4
238,-21,-3
239,-23,-2
240,-23,1
241,-17,4
242,-18,7
243,-12,8
244,-10,11
245,-6,17
246,-7,22
247,-2,25
248,7,30
249,3,39
250,15,45
251,10,52
252,23,64
253,34,76
254,29,79
255,43,87
256,50,95
257,58,96
258,57,97
259,62,88
260,59,81
261,48,65
262,50,49
263,34,34
264,30,23
265,17,14
266,1,7
267,-2,3
268,-2,0
269,-3,-1
270,-8,-2
271,-9,-4
272,-10,-4
273,-8,-3
274,-10,-2
275,-8,-3
276,-4,-3
277,-4,-1
278,-6,-4
279,-8,-5
280,-18,-7
281,-12,-2
282,-2,-4
283,1,-4
284,-18,-5
285,-2,-4
286,-8,-5
287,-9,-9
288,-9,-4
289,-7,-7
290,-3,-7
291,-6,-7
292,-8,-8
293,-1,-2
294,8,3
295,6,5
296,12,7
297,24,5
298,23,1
299,25,-2
300,20,-3
301,13,-5
302,-6,-7
303,-10,-11
304,-17,-14
305,-17,-16
306,-20,-18
307,-28,-22
308,-28,-22
309,-32,-16
310,-21,-21
311,-23,-19
312,-30,-18
313,-19,-17
314,-25,-28
315,-51,-21
316,-19,48
317,91,29
318,183,-74
319,217,-161
320,-8,-256
321,-131,-229
322,-102,-142
323,-57,-68
324,-29,-34
325,-25,-22
326,-24,-16
327,-24,-12
328,-21,-10
329,-24,-8
330,-28,-4
331,-17,-3
332,-9,-4
333,-8,-1
334,-9,1
335,-9,2
336,-8,5
337,-12,9
338,-6,11
339,0,16
340,1,19
341,4,27
342,4,31
343,14,38
344,18,45
345,26,55
346,30,64
347,34,69
348,31,76
349,39,84
350,50,89
351,46,94
352,61,94
353,63,92
354,63,82
355,61,68
356,53,51
357,45,37
358,31,27
359,25,15
360,13,7
361,4,2
362,6,0
363,-2,-3
364,0,-3
365,-6,-2
366,-2,-7
367,-3,-3
368,-1,-4
369,-1,-7
370,-3,-7
371,-10,-3
372,-12,-4
373,1,-5
374,-2,-4
375,-6,-7
376,-4,-7
377,-4,-5
378,-1,-3
379,0,-5
380,1,-5
381,-2,-7
382,-3,-9
383,-10,-9
384,-4,-9
385,-3,-9
386,-2,-7
387,1,0
388,1,0
389,10,4
390,28,4
391,34,1
392,21,-3
393,31,-7
394,20,-7
395,7,-11
396,-4,-11
397,-8,-15
398,-20,-16
399,-25,-19
400,-17,-21
401,-28,-17
402,-31,-21
403,-28,-22
404,-20,-22
405,-20,-18
406,-23,-21
407,-21,-25
408,-32,-19
409,-19,21
410,59,38
411,157,-44
412,190,-129
413,46,-218
414,-104,-235
415,-113,-174
416,-68,-96
417,-34,-48
418,-26,-28
419,-24,-23
420,-19,-17
421,-26,-14
422,-24,-12
423,-13,-10
424,-15,-9
425,-19,-3
426,-14,-4
427,-7,-2
428,-7,0
429,-6,3
430,-4,5
431,2,11
432,-10,15
433,3,17
434,8,23
435,7,28
436,14,35
437,12,42
438,18,52
439,23,61
440,35,65
441,37,75
442,41,82
443,39,85
444,51,90
445,57,95
446,57,89
447,61,81
448,57,70
449,52,56
450,47,41
451,35,29
452,23,19
453,19,11
454,6,5
455,4,0
456,-6,0
457,0,-2
458,2,-2
459,-7,-2
460,-4,-5
461,-10,-2
462,-2,-4
463,-9,-5
464,-6,-8
465,-3,-2
466,-3,-2
467,-1,-4
468,-6,-5
469,-2,-5
470,-6,-7
471,-9,-9
472,-9,-10
473,-8,-7
474,-4,-8
475,-8,-9
476,-9,-9
477,-2,-5
478,7,-1
479,8,0
480,17,1
481,23,0
482,28,-2
483,18,-8
484,13,-8
485,8,-9
486,1,-7
487,-13,-10
488,-12,-15
489,-21,-14
490,-28,-16
491,-29,-19
492,-28,-16
493,-30,-18
494,-42,-17
495,-24,-17
496,-23,-15
497,-29,-15
498,-23,-21
499,-41,-16
500,-26,19
501,62,63
502,132,-25
503,189,-95
504,41,-181
505,-104,-218
506,-131,-169
507,-86,-96
508,-43,-41
509,-34,-21
510,-32,-14
511,-28,-10
512,-21,-9
513,-23,-5
514,-21,-3
515,-19,-3
516,-18,-2
517,-18,-2
518,-17,-1
519,-15,-2
520,-15,-1
521,-13,3
522,-10,10
523,-9,17
524,-3,24
525,-7,30
526,0,34
527,7,38
528,13,43
529,14,50
530,15,62
531,26,63
532,35,70
533,36,76
534,41,75
535,45,77
536,47,78
537,56,81
538,56,76
539,54,62
540,46,51
541,42,41
542,30,29
543,20,18
544,12,12
545,4,11
546,3,4
547,-3,3
548,-4,2
549,-6,2
550,-9,-1
551,-8,-1
552,-10,0
553,-8,-2
554,-2,0
555,-4,-1
556,-8,-1
557,-7,0
558,-2,-2
559,-2,1
560,-12,-3
561,1,-1
562,6,0
563,6,-2
564,-1,-4
565,0,-1
566,3,1
567,4,5
568,13,5
569,17,10
570,26,11
571,31,7
572,32,-1
573,28,-2
574,21,-2
575,8,-8
576,1,-9
577,-8,-10
578,-18,-14
579,-20,-17
580,-28,-15
581,-20,-14
582,-21,-17
583,-17,-15
584,-24,-19
585,-30,-17
586,-26,-19
587,-17,-19
588,-21,-25
589,-29,-4
590,21,59
591,109,16
592,178,-71
593,167,-143
594,-31,-230
595,-109,-201
596,-93,-132
597,-51,-64
598,-28,-34
599,-25,-23
600,-23,-18
601,-24,-14
602,-19,-8
603,-18,-7
604,-18,-5
605,-10,-4
606,-9,-4
607,-10,-3
608,-6,0
609,-4,4
610,-1,7
611,-3,5
612,-1,11
613,8,17
614,10,18
615,12,24
616,14,35
617,19,38
618,21,45
619,25,51
620,32,61
621,32,65
622,39,76
623,36,81
624,53,85
625,52,90
626,52,87
627,57,79
628,52,67
629,52,55
630,43,42
631,37,25
632,28,18
633,17,9
634,10,4
635,-7,-1
636,-2,-2
637,2,2
638,4,-2
639,1,-2
640,2,-2
641,1,-2
642,0,-5
643,-2,-4
644,-6,-3
645,0,-3
646,-1,-2
647,-3,-4
648,-1,-3
649,-3,-3
650,-3,-2
651,-1,-3
652,2,-3
653,0,-2
654,-1,-2
655,3,1
656,14,3
657,17,9
658,24,11
659,31,9
660,32,2
661,28,-2
662,24,-4
663,13,-9
664,-8,-7
665,-3,-9
666,-8,-10
667,-19,-15
668,-21,-16
669,-26,-15
670,-25,-21
671,-28,-15
672,-19,-18
673,-21,-16
674,-24,-19
675,-25,-21
676,-23,-25
677,-30,-21
678,-17,22
679,62,50
680,148,-25
681,178,-111
682,56,-192
683,-95,-222
684,-117,-163
685,-73,-88
686,-37,-39
687,-29,-23
688,-25,-16
689,-24,-11
690,-19,-8
691,-21,-3
692,-18,-4
693,-18,-1
694,-21,1
695,-17,1
696,-20,2
697,-17,7
698,-18,10
699,-10,11
700,-7,15
701,-3,16
702,-4,25
703,-3,27
704,-3,36
705,2,41
706,14,48
707,15,54
708,21,63
709,25,69
710,29,77
711,30,84
712,36,88
713,54,94
714,53,94
715,56,91
716,51,81
717,54,65
718,46,51
719,34,37
720,21,24
721,9,16
722,6,10
723,0,4
724,-9,1
725,-15,-1
726,-17,-3
727,-20,-3
728,-18,-3
729,-14,-2
730,-12,0
731,-14,-1
732,-9,-2
733,-17,-1
734,-10,-2
735,-14,-3
736,-9,-4
737,-14,2
738,-6,-2
739,-1,-1
740,-8,-3
741,-7,-1
742,-2,1
743,7,4
744,6,7
745,21,5
746,23,3
747,24,-1
748,21,-5
749,15,-4
750,2,-4
751,-4,-8
752,-10,-8
753,-17,-11
754,-21,-14
755,-26,-16
756,-29,-15
757,-25,-14
758,-28,-16
759,-29,-19
760,-28,-17
761,-28,-18
762,-26,-17
763,-28,-25
764,-40,-15
765,-15,50
766,106,45
767,187,-45
768,230,-127
769,20,-222
770,-109,-224
771,-111,-156
772,-68,-82
773,-36,-38
774,-31,-25
775,-32,-16
776,-26,-12
777,-21,-12
778,-25,-8
779,-21,-11
780,-19,-8
781,-19,-4
782,-18,-1
783,-17,0
784,-14,1
785,-13,5
786,-13,5
787,-10,8
788,-9,14
789,-4,18
790,0,22
791,2,27
792,4,34
793,7,38
794,4,50
795,15,57
796,36,67
797,45,74
798,46,81
799,46,84
800,56,90
801,57,92
802,62,88
803,61,78
804,62,61
805,47,50
806,40,31
807,24,24
808,13,11
809,7,9
810,1,2
811,-3,-1
812,-8,-5
813,-12,-3
814,-13,-5
815,-8,-7
816,-10,-4
817,-9,-3
818,-13,-3
819,-15,-3
820,-15,-3
821,-3,-1
822,-6,-2
823,-4,-3
824,-4,-3
825,-6,-3
826,-10,-3
827,0,-3
828,1,-3
829,4,2
830,9,5
831,13,8
832,17,10
833,30,8
834,29,2
835,28,-2
836,20,-3
837,10,-5
838,-2,-7
839,-8,-10
840,-18,-12
841,-19,-15
842,-20,-12
843,-23,-18
844,-26,-18
845,-31,-15
846,-24,-17
847,-29,-19
848,-26,-22
849,-32,-19
850,-19,-30
851,-43,-17
852,-9,34
853,92,47
854,178,-52
855,220,-141
856,19,-237
857,-126,-228
858,-118,-154
859,-63,-79
860,-34,-39
861,-25,-25
862,-25,-18
863,-23,-17
864,-24,-10
865,-19,-10
866,-18,-8
867,-19,-8
868,-18,-5
869,-15,-4
870,-17,-1
871,-10,1
872,-7,1
873,-7,5
874,-2,8
875,-3,11
876,-2,16
877,0,23
878,7,28
879,10,35
880,15,41
881,21,51
882,29,58
883,29,68
884,42,72
885,51,82
886,51,88
887,59,89
888,61,90
889,70,84
890,63,81
891,63,59
892,50,47
893,40,34
894,32,24
895,7,11
896,0,5
897,-8,3
898,-7,-1
899,-12,-3
900,-10,-4
901,-13,-4
902,-15,-4
903,-14,-4
904,-14,-4
905,-10,-3
906,-15,0
907,-13,-3
908,-9,1
909,-6,2
910,-7,7
911,-4,5
912,-9,5
913,-10,8
914,-6,5
915,-8,5
916,1,7
917,8,10
918,10,11
919,12,12
920,21,11
921,19,8
922,18,4
923,21,2
924,3,0
925,-4,-4
926,-18,-5
927,-18,-10
928,-28,-11
929,-32,-15
930,-28,-14
931,-41,-12
932,-19,-15
933,-32,-14
934,-37,-12
935,-30,-12
936,-35,-12
937,-30,-14
938,-46,-5
939,0,23
940,89,64
941,208,19
942,276,-57
943,80,-141
944,-123,-185
945,-145,-151
946,-100,-83
947,-61,-34
948,-41,-17
949,-41,-9
950,-39,-3
951,-31,1
952,-25,0
953,-20,4
954,-29,5
955,-30,2
956,-19,4
957,-35,14
958,-24,14
959,-12,10
960,-17,21
961,-15,21
962,-9,23
963,-23,24
964,-10,27
965,-2,32
966,10,34
967,19,39
968,18,45
969,29,52
970,39,58
971,43,62
972,51,65
973,73,70
974,67,74
975,75,69
976,74,63
977,71,57
978,58,49
979,39,38
980,32,25
981,-4,19
982,-7,10
983,6,3
984,-3,2
985,-10,7
986,-15,0
987,-34,-4
988,-28,-4
989,-31,-3
990,-31,-2
991,-20,-4
992,-23,-4
993,-13,-4
994,-10,1
995,-23,-3
996,-17,-3
997,-15,-1
998,-3,-4
999,-8,-7
1000,-74,-3
1001,-85,1
1002,-20,9
1003,9,14
1004,81,23
1005,112,16
1006,92,21
1007,74,11
1008,53,11
1009,32,4
1010,14,-3
1011,-6,-7
1012,-12,-7
1013,-26,-10
1014,-37,-15
1015,-28,-16
1016,-31,-15
1017,-39,-15
1018,-37,-15
1019,-39,-17
1020,-39,-15
1021,-39,-17
1022,-34,-22
1023,-47,-8
1024,-17,35
1025,93,45
1026,223,-19
1027,236,-108
1028,25,-197
1029,-134,-203
1030,-135,-141
1031,-86,-75
1032,-52,-37
1033,-41,-18
1034,-41,-11
1035,-48,-11
1036,-42,-7
1037,-35,-4
1038,-34,-3
1039,-39,-2
1040,-28,1
1041,-21,5
1042,-20,5
1043,-23,8
1044,-21,11
1045,-17,14
1046,-28,16
1047,-21,17
1048,-13,24
1049,-4,28
1050,0,34
1051,9,38
1052,15,47
1053,19,52
1054,30,61
1055,23,67
1056,35,75
1057,43,82
1058,52,85
1059,47,87
1060,56,83
1061,59,78
1062,54,71
1063,54,55
1064,46,41
1065,29,29
1066,10,21
1067,-1,9
1068,0,4
1069,-10,4
1070,-8,0
1071,-8,1
1072,-14,-1
1073,-14,-3
1074,-18,-3
1075,-17,-3
1076,-21,-2
1077,-17,-3
1078,-14,-3
1079,-15,-3
1080,-15,-3
1081,-15,-4
1082,-18,-2
1083,-18,-1
1084,-10,-2
1085,-8,-1
1086,-7,-1
1087,-8,-4
1088,-9,-5
1089,-13,-3
1090,-13,-4
1091,-8,-4
1092,-14,-7
1093,-9,-1
1094,-4,4
1095,-4,3
1096,10,9
1097,17,10
1098,32,7
1099,30,4
1100,30,1
1101,20,2
1102,1,-8
1103,-12,-9
1104,-26,-14
1105,-24,-16
1106,-30,-16
1107,-29,-17
1108,-24,-17
1109,-24,-16
1110,-28,-16
1111,-30,-15
1112,-25,-17
1113,-30,-15
1114,-24,-19
1115,-35,-21
1116,-37,9
1117,48,50
1118,161,10
1119,283,-62
1120,183,-158
1121,-80,-223
1122,-156,-190
1123,-111,-116
1124,-62,-52
1125,-48,-27
1126,-30,-19
1127,-34,-15
1128,-31,-11
1129,-28,-5
1130,-30,-8
1131,-32,-5
1132,-34,-5
1133,-14,-3
1134,-19,-3
1135,-13,-4
1136,-15,-1
1137,-14,0
1138,-17,5
1139,-12,8
1140,-4,12
1141,-7,16
1142,-2,24
1143,1,29
1144,7,34
1145,13,47
1146,21,54
1147,30,58
1148,36,68
1149,43,77
1150,51,83
1151,57,87
1152,62,92
1153,68,89
1154,71,83
1155,64,69
1156,52,55
1157,43,38
1158,35,27
1159,23,15
1160,10,7
1161,1,3
1162,-2,-2
1163,-3,-3
1164,-8,-7
1165,-14,-3
1166,-13,-4
1167,-8,-7
1168,-10,-7
1169,-12,-5
1170,-12,-5
1171,-8,-8
1172,-12,-4
1173,-9,-3
1174,-9,-4
1175,-9,-5
1176,-8,-3
1177,-12,-3
1178,-6,-5
1179,-9,-3
1180,-6,-7
1181,-8,-4
1182,-4,-7
1183,-9,-8
1184,-8,-10
1185,-8,-5
1186,-12,-3
1187,-6,-9
1188,-8,-8
1189,-1,-3
1190,7,4
1191,6,0
1192,13,3
1193,21,5
1194,30,3
1195,29,0
1196,30,-1
1197,15,-2
1198,-1,-11
1199,-19,-12
1200,-23,-16
1201,-18,-18
1202,-21,-19
1203,-20,-19
1204,-24,-19
1205,-23,-19
1206,-32,-16
1207,-24,-19
1208,-24,-18
1209,-26,-18
1210,-29,-23
1211,-40,-10
1212,-12,28
1213,96,43
1214,222,-21
1215,262,-110
1216,76,-205
1217,-128,-221
1218,-126,-148
1219,-78,-75
1220,-43,-37
1221,-35,-23
1222,-32,-17
1223,-28,-16
1224,-23,-11
1225,-31,-9
1226,-25,-7
1227,-19,-8
1228,-13,-5
1229,-10,-4
1230,-24,-3
1231,-25,-1
1232,-12,0
1233,-2,5
1234,-6,10
1235,-4,12
1236,-7,17
1237,2,23
1238,-2,31
1239,7,34
1240,17,44
1241,18,51
1242,23,62
1243,28,69
1244,42,79
1245,56,88
1246,61,92
1247,61,97
1248,65,95
1249,68,91
1250,69,82
1251,65,67
1252,53,50
1253,47,38
1254,39,27
1255,24,15
1256,12,8
1257,4,5
1258,-1,1
1259,-8,-3
1260,-9,-3
1261,-8,-2
1262,-10,-4
1263,-15,-3
1264,-10,-2
1265,-8,-2
1266,-10,-3
1267,-7,-3
1268,-10,-2
1269,-13,-4
1270,-13,-2
1271,-9,-2
1272,-6,-1
1273,-2,0
1274,-1,-2
1275,-12,-3
1276,-4,-4
1277,-13,1
1278,-10,-3
1279,-6,-4
