,0,1
0,-7,0
1,-4,1
2,0,-1
3,0,-4
4,-4,-6
5,-19,-10
6,-26,-13
7,-35,-11
8,-42,-15
9,-44,-17
10,-46,-17
11,-40,-15
12,-46,-13
13,-35,-17
14,-30,-17
15,-39,-15
16,-70,-14
17,5,26
18,178,22
19,329,-6
20,445,-37
21,335,-57
22,111,-50
23,4,-33
24,-10,-20
25,-17,-10
26,-24,-6
27,-24,-5
28,-33,-5
29,-33,-5
30,-32,-4
31,-32,-2
32,-32,1
33,-29,0
34,-23,1
35,-24,2
36,-21,3
37,-20,2
38,-17,5
39,-15,9
40,-10,10
41,-7,12
42,-4,13
43,0,18
44,4,19
45,8,22
46,11,25
47,20,28
48,21,30
49,23,30
50,28,31
51,28,31
52,28,34
53,27,30
54,30,28
55,26,28
56,23,23
57,16,19
58,11,12
59,1,12
60,-4,6
61,-5,1
62,-15,-1
63,-19,-2
64,-22,-3
65,-24,-9
66,-29,-4
67,-26,-6
68,-24,-6
69,-29,-7
70,-24,-7
71,-27,-4
72,-23,-7
73,-29,-3
74,-22,-5
75,-20,-2
76,-24,-4
77,-20,-3
78,-23,-3
79,-19,-2
80,-26,-1
81,-21,-4
82,-17,-2
83,-22,-1
84,-20,-2
85,-22,-4
86,-22,-4
87,-26,-1
88,-21,-4
89,-23,-3
90,-26,-4
91,-26,-3
92,-27,-4
93,-29,-5
94,-28,-3
95,-27,-5
96,-30,-5
97,-27,-7
98,-23,-5
99,-15,-2
100,-11,3
101,-5,1
102,2,3
103,3,4
104,3,0
105,-2,-9
106,-10,-7
107,-24,-7
108,-29,-10
109,-38,-13
110,-39,-13
111,-42,-12
112,-41,-15
113,-40,-14
114,-38,-13
115,-27,-12
116,-34,-15
117,-63,-19
118,-22,25
119,128,36
120,278,5
121,428,-30
122,395,-59
123,157,-51
124,15,-38
125,-10,-21
126,-13,-12
127,-27,-3
128,-27,-4
129,-30,-4
130,-33,-2
131,-32,0
132,-34,0
133,-30,1
134,-30,3
135,-24,3
136,-24,4
137,-22,4
138,-21,7
139,-19,10
140,-16,13
141,-11,13
142,-8,17
143,-5,19
144,-2,21
145,1,22
146,8,28
147,5,31
148,20,31
149,19,35
150,23,33
151,27,38
152,28,34
153,28,35
154,26,34
155,33,33
156,27,29
157,24,25
158,20,22
159,14,18
160,7,14
161,0,7
162,-3,4
163,-11,3
164,-17,-1
165,-21,-5
166,-23,-3
167,-26,-4
168,-22,-4
169,-26,-9
170,-22,-7
171,-27,-4
172,-22,-7
173,-27,-6
174,-23,-5
175,-20,-4
176,-23,-6
177,-20,-4
178,-23,-4
179,-19,-2
180,-26,-1
181,-19,-4
182,-21,-2
183,-22,-1
184,-21,-2
185,-24,-4
186,-22,-4
187,-27,-1
188,-21,-3
189,-23,-5
190,-23,-3
191,-27,-4
192,-27,-4
193,-29,-4
194,-26,-6
195,-28,-3
196,-28,-4
197,-29,-5
198,-27,-5
199,-22,-2
200,-16,3
201,-8,2
202,-4,3
203,2,6
204,2,3
205,2,-2
206,-5,-3
207,-13,-3
208,-26,-5
209,-32,-9
210,-40,-10
211,-41,-13
212,-41,-10
213,-42,-14
214,-33,-13
215,-36,-10
216,-28,-12
217,-40,-17
218,-65,-14
219,-4,39
220,160,28
221,311,1
222,442,-34
223,354,-55
224,124,-50
225,13,-31
226,-7,-17
227,-9,-6
228,-22,-5
229,-26,-5
230,-30,-4
231,-29,-2
232,-33,0
233,-28,-3
234,-28,0
235,-28,2
236,-26,2
237,-24,2
238,-24,5
239,-19,7
240,-15,7
241,-13,9
242,-9,12
243,-5,14
244,-4,18
245,0,19
246,7,20
247,10,23
248,13,26
249,16,26
250,21,29
251,22,33
252,32,33
253,32,33
254,35,31
255,33,33
256,33,28
257,27,28
258,28,22
259,24,21
260,13,13
261,9,9
262,0,3
263,-7,2
264,-19,0
265,-17,-6
266,-24,-7
267,-22,-6
268,-27,-7
269,-24,-11
270,-30,-7
271,-23,-9
272,-24,-9
273,-26,-9
274,-23,-9
275,-24,-7
276,-23,-4
277,-26,-6
278,-21,-5
279,-22,-4
280,-22,-4
281,-22,-5
282,-22,-4
283,-23,-2
284,-21,-3
285,-20,-4
286,-22,-4
287,-23,-5
288,-24,-5
289,-27,-6
290,-22,-9
291,-26,-5
292,-27,-6
293,-29,-7
294,-27,-10
295,-33,-6
296,-29,-7
297,-28,-9
298,-26,-9
299,-22,-4
300,-16,-3
301,-11,-2
302,-10,1
303,5,4
304,1,0
305,5,-4
306,-9,-7
307,-13,-9
308,-32,-6
309,-34,-13
310,-39,-13
311,-42,-13
312,-42,-15
313,-44,-19
314,-38,-15
315,-39,-13
316,-26,-17
317,-39,-18
318,-60,-13
319,3,26
320,167,28
321,318,0
322,434,-33
323,343,-49
324,126,-45
325,10,-34
326,-9,-19
327,-16,-10
328,-26,-7
329,-26,-7
330,-30,-5
331,-29,-4
332,-32,-4
333,-30,-4
334,-30,-3
335,-26,-2
336,-22,0
337,-23,-1
338,-20,0
339,-17,2
340,-16,4
341,-13,5
342,-4,6
343,-4,10
344,-1,13
345,2,13
346,7,18
347,8,21
348,15,25
349,17,25
350,23,26
351,26,30
352,28,27
353,28,30
354,33,29
355,36,29
356,30,26
357,29,22
358,23,19
359,22,17
360,8,13
361,9,6
362,-2,5
363,-9,1
364,-15,-1
365,-20,-6
366,-22,-4
367,-24,-5
368,-21,-6
369,-26,-7
370,-23,-9
371,-26,-7
372,-27,-7
373,-28,-6
374,-23,-7
375,-21,-6
376,-24,-5
377,-24,-6
378,-23,-5
379,-24,-3
380,-23,-3
381,-21,-4
382,-21,-3
383,-21,-2
384,-22,-4
385,-22,-5
386,-22,-2
387,-20,-3
388,-22,-3
389,-23,-4
390,-26,-4
391,-26,-6
392,-29,-2
393,-29,-6
394,-26,-5
395,-30,-5
396,-29,-7
397,-30,-9
398,-21,-6
399,-21,-1
400,-5,-1
401,-7,1
402,2,2
403,2,4
404,2,-5
405,-4,-7
406,-16,-10
407,-22,-9
408,-35,-11
409,-39,-14
410,-44,-14
411,-40,-14
412,-45,-12
413,-36,-14
414,-34,-13
415,-30,-14
416,-39,-15
417,-57,-11
418,4,23
419,161,31
420,322,-4
421,417,-36
422,335,-54
423,132,-47
424,11,-34
425,-14,-19
426,-14,-10
427,-24,-4
428,-29,-3
429,-33,-4
430,-34,-1
431,-35,2
432,-32,1
433,-30,2
434,-29,1
435,-28,5
436,-24,4
437,-23,6
438,-21,6
439,-15,10
440,-16,12
441,-13,13
442,-8,14
443,-3,19
444,-5,21
445,7,21
446,5,25
447,14,29
448,13,31
449,21,29
450,19,35
451,29,34
452,28,36
453,27,30
454,32,33
455,28,30
456,27,29
457,21,23
458,21,20
459,11,18
460,5,11
461,-3,6
462,-8,3
463,-16,4
464,-15,-2
465,-21,-3
466,-21,-4
467,-22,-4
468,-23,-5
469,-27,-4
470,-23,-5
471,-20,-3
472,-24,-4
473,-22,-3
474,-22,-4
475,-23,-1
476,-23,0
477,-21,0
478,-21,1
479,-21,1
480,-22,0
481,-22,0
482,-23,1
483,-20,0
484,-22,0
485,-23,-2
486,-26,-1
487,-24,-1
488,-29,-1
489,-26,-3
490,-24,-2
491,-28,-2
492,-27,-2
493,-30,-7
494,-29,-3
495,-34,-2
496,-22,-4
497,-23,-3
498,-11,1
499,-10,4
500,-4,4
501,-1,7
502,7,2
503,3,1
504,-8,-3
505,-19,-6
506,-29,-7
507,-36,-6
508,-42,-7
509,-40,-12
510,-41,-12
511,-40,-10
512,-39,-12
513,-35,-12
514,-30,-11
515,-44,-13
516,-58,-3
517,34,34
518,189,22
519,353,-7
520,427,-35
521,291,-54
522,79,-45
523,0,-27
524,-5,-13
525,-13,-7
526,-32,-3
527,-27,-1
528,-32,-1
529,-34,-3
530,-28,1
531,-32,2
532,-29,3
533,-28,3
534,-16,6
535,-23,7
536,-20,7
537,-17,9
538,-10,13
539,-11,14
540,-5,17
541,-3,19
542,0,20
543,5,22
544,11,26
545,11,29
546,21,31
547,22,35
548,23,35
549,26,35
550,30,35
551,29,38
552,34,34
553,33,33
554,32,30
555,29,29
556,24,23
557,20,19
558,9,14
559,8,12
560,-5,5
561,-4,0
562,-14,-1
563,-19,-3
564,-27,-3
565,-21,-6
566,-24,-6
567,-23,-5
568,-27,-7
569,-26,-10
570,-27,-5
571,-22,-5
572,-22,-5
573,-21,-6
574,-21,-5
575,-20,-3
576,-24,-3
577,-21,-3
578,-22,-4
579,-21,-1
580,-21,-2
581,-22,-4
582,-24,-1
583,-22,-2
584,-20,-2
585,-27,-5
586,-23,-4
587,-27,-4
588,-26,-4
589,-28,-5
590,-23,-5
591,-29,-4
592,-28,-5
593,-30,-6
594,-26,-5
595,-20,0
596,-8,2
597,-9,2
598,-3,4
599,3,4
600,4,3
601,1,-3
602,-4,-5
603,-16,-6
604,-27,-6
605,-34,-9
606,-39,-7
607,-41,-10
608,-38,-11
609,-36,-12
610,-34,-11
611,-33,-12
612,-27,-13
613,-55,-13
614,-49,1
615,71,41
616,228,19
617,385,-11
618,439,-38
619,260,-47
620,59,-41
621,0,-26
622,-8,-13
623,-19,-6
624,-27,-9
625,-34,-4
626,-27,-5
627,-32,-2
628,-33,-4
629,-33,-2
630,-29,-5
631,-29,0
632,-27,-2
633,-21,-2
634,-21,-2
635,-17,2
636,-17,1
637,-14,4
638,-10,6
639,-4,7
640,-4,10
641,1,12
642,3,12
643,9,18
644,13,20
645,20,20
646,24,23
647,28,26
648,30,26
649,32,22
650,32,23
651,34,22
652,33,21
653,28,17
654,23,13
655,14,12
656,7,6
657,1,1
658,-4,-1
659,-13,-4
660,-15,-6
661,-23,-9
662,-26,-11
663,-23,-10
664,-27,-9
665,-27,-11
666,-26,-12
667,-28,-9
668,-29,-9
669,-24,-9
670,-24,-10
671,-24,-7
672,-27,-10
673,-28,-10
674,-24,-9
675,-22,-5
676,-24,-7
677,-26,-7
678,-24,-10
679,-22,-7
680,-26,-9
681,-22,-10
682,-23,-10
683,-21,-9
684,-28,-12
685,-24,-12
686,-28,-11
687,-19,-13
688,-27,-13
689,-20,-15
690,-20,-15
691,-11,-9
692,-8,-7
693,1,-10
694,1,-2
695,8,-9
696,5,-11
697,0,-20
698,-14,-14
699,-19,-18
700,-32,-20
701,-34,-26
702,-38,-25
703,-38,-23
704,-39,-20
705,-32,-22
706,-29,-21
707,-24,-21
708,-38,-21
709,-54,-18
710,24,20
711,201,19
712,362,-6
713,454,-33
714,355,-49
715,116,-45
716,11,-33
717,-3,-18
718,-7,-17
719,-19,-14
720,-23,-14
721,-27,-13
722,-24,-10
723,-23,-7
724,-19,-9
725,-20,-11
726,-19,-6
727,-10,0
728,-9,0
729,-2,-4
730,14,0
731,16,4
732,13,2
733,16,1
734,20,1
735,22,5
736,30,7
737,44,14
738,46,18
739,51,14
740,53,14
741,54,18
742,53,20
743,61,21
744,60,22
745,57,20
746,51,23
747,49,19
748,44,21
749,32,15
750,33,9
751,22,10
752,16,2
753,4,-5
754,2,-11
755,-10,-12
756,-10,-9
757,-13,-11
758,-15,-23
759,-15,-20
760,-29,-12
761,-23,-14
762,-24,-15
763,-22,-11
764,-34,-21
765,-36,-19
766,-29,-18
767,-27,-17
768,-36,-14
769,-28,-20
770,-29,-19
771,-38,-20
772,-30,-11
773,-36,-15
774,-34,-14
775,-34,-12
776,-40,-14
777,-40,-15
778,-35,-15
779,-33,-13
780,-36,-21
781,-35,-5
782,-40,-6
783,-33,-22
784,-27,-9
785,-32,-18
786,-36,-10
787,-16,-12
788,-10,-10
789,-7,-6
790,-9,-11
791,-11,-6
792,-24,-5
793,-33,-18
794,-40,3
795,-51,-6
796,-51,-25
797,-47,-25
798,-58,-23
799,-65,-23
800,-52,-5
801,-41,-4
802,-41,-41
803,-70,2
804,-60,21
805,64,34
806,232,-4
807,393,-18
808,428,-46
809,252,-44
810,39,-42
811,-16,-28
812,-20,-7
813,-51,-11
814,-64,1
815,-30,0
816,-55,1
817,-39,23
818,-46,5
819,-40,-3
820,-44,3
821,-38,23
822,-35,-4
823,-38,-6
824,-35,0
825,-35,4
826,-33,14
827,-30,11
828,-28,14
829,-33,20
830,-34,51
831,-17,50
832,-7,1
833,-13,11
834,-8,23
835,-3,25
836,-13,28
837,1,33
838,4,30
839,5,26
840,-3,45
841,8,26
842,1,14
843,-11,37
844,-2,43
845,-17,-11
846,-30,13
847,-36,20
848,-34,3
849,-30,-4
850,-35,-25
851,-47,-19
852,-55,-17
853,-53,-15
854,-48,-14
855,-53,-14
856,-49,-13
857,-53,-14
858,-48,-4
859,-54,-19
860,-44,-2
861,-49,-2
862,-39,-14
863,-45,-13
864,-48,-3
865,-38,-6
866,-54,-17
867,-42,-2
868,-51,-15
869,-33,28
870,-35,-5
871,-47,-2
872,-42,-10
873,-51,-5
874,-46,-5
875,-46,-4
876,-44,-5
877,-42,-3
878,-33,-3
879,-29,-1
880,-30,9
881,-22,10
882,-23,4
883,-9,26
884,-19,-20
885,-38,-35
886,-49,-19
887,-57,-14
888,-61,-15
889,-63,-15
890,-63,-14
891,-60,-11
892,-57,-5
893,-52,-2
894,-44,2
895,-46,-7
896,-74,11
897,-48,46
898,89,90
899,257,50
900,399,-31
901,404,-55
902,239,-41
903,82,-17
904,33,-2
905,34,20
906,34,33
907,32,31
908,22,25
909,19,15
910,15,14
911,10,12
912,0,6
913,3,30
914,11,11
915,0,-13
916,4,17
917,3,4
918,21,17
919,19,3
920,15,-4
921,19,10
922,20,14
923,33,19
924,21,21
925,26,27
926,21,34
927,17,27
928,15,26
929,19,31
930,11,34
931,13,39
932,20,39
933,19,42
934,10,35
935,0,36
936,0,28
937,-4,29
938,-9,26
939,-22,18
940,-32,13
941,-32,5
942,-45,7
943,-44,0
944,-54,1
945,-53,7
946,-65,9
947,-52,-10
948,-59,-7
949,-63,-5
950,-55,-2
951,-57,-5
952,-58,-3
953,-63,0
954,-54,-9
955,-57,-2
956,-49,-9
957,-51,-10
958,-52,-10
959,-53,-4
960,-53,-11
961,-42,-13
962,-54,-7
963,-55,-10
964,-55,-15
965,-54,-17
966,-55,-13
967,-48,-17
968,-45,-11
969,-45,-7
970,-34,-12
971,-28,-3
972,-26,1
973,-28,3
974,-17,3
975,-20,5
976,-28,0
977,-36,-4
978,-47,-5
979,-55,-9
980,-57,-14
981,-58,-13
982,-64,-19
983,-60,-22
984,-58,-23
985,-58,-18
986,-47,-19
987,-53,-23
988,-76,1
989,1,47
990,153,52
991,316,22
992,415,0
993,324,-18
994,116,-15
995,-3,1
996,-29,7
997,-41,1
998,-52,-5
999,-52,-9
1000,-53,-11
1001,-54,-5
1002,-47,-2
1003,-47,-1
1004,-45,1
1005,-53,3
1006,-30,3
1007,-35,4
1008,-34,5
1009,-36,7
1010,-32,3
1011,-35,14
1012,-28,7
1013,-21,7
1014,-19,7
1015,-14,12
1016,-15,15
1017,-7,22
1018,-5,29
1019,1,25
1020,7,41
1021,9,31
1022,14,28
1023,16,22
1024,17,30
1025,14,25
1026,16,26
1027,10,31
1028,8,19
1029,3,10
1030,2,7
1031,-7,6
1032,-17,5
1033,-20,2
1034,-24,-10
1035,-24,-5
1036,-32,-7
1037,-32,-9
1038,-30,-9
1039,-34,-9
1040,-33,-7
1041,-38,-10
1042,-39,-10
1043,-34,-9
1044,-29,-9
1045,-38,-6
1046,-26,-6
1047,-36,-9
1048,-30,-13
1049,-33,0
1050,-20,-11
1051,-29,-6
1052,-30,-9
1053,-39,-4
1054,-24,-7
1055,-34,-2
1056,-34,-4
1057,-41,-5
1058,-38,-5
1059,-33,1
1060,-23,-3
1061,-20,1
1062,-21,9
1063,-2,7
1064,-2,5
1065,1,0
1066,-15,4
1067,-9,-2
1068,-24,-9
1069,-26,-7
1070,-36,-7
1071,-39,-10
1072,-40,-11
1073,-36,-11
1074,-36,-9
1075,-29,-6
1076,-23,-7
1077,-41,-11
1078,-55,-2
1079,22,45
1080,185,41
1081,347,7
1082,449,-22
1083,342,-36
1084,132,-31
1085,52,-19
1086,-23,-7
1087,80,-2
1088,2,4
1089,-15,0
1090,-61,7
1091,-41,-1
1092,-40,4
1093,-38,1
1094,-45,4
1095,-30,7
1096,-32,9
1097,-23,7
1098,-27,13
1099,-19,14
1100,-15,15
1101,-14,18
1102,-14,17
1103,2,21
1104,34,27
1105,13,25
1106,10,29
1107,23,31
1108,2,33
1109,-1,39
1110,1,43
1111,21,46
1112,30,47
1113,39,41
1114,29,41
1115,41,39
1116,30,37
1117,27,29
1118,27,28
1119,15,13
1120,14,5
1121,4,2
1122,26,10
1123,19,2
1124,30,-3
1125,-1,1
1126,-15,1
1127,-10,1
1128,-22,4
1129,-27,4
1130,-11,1
1131,-13,0
1132,-5,-1
1133,-10,-4
1134,-10,-6
1135,-14,-3
1136,-1,-4
1137,3,-3
1138,0,1
1139,13,2
1140,5,3
1141,7,3
1142,30,7
1143,16,13
1144,23,1
1145,15,5
1146,9,2
1147,4,2
1148,-3,3
1149,8,5
1150,14,15
1151,15,9
1152,15,9
1153,17,9
1154,15,3
1155,10,3
1156,9,4
1157,-3,3
1158,-22,1
1159,-19,-3
1160,4,-4
1161,-5,2
1162,-23,-3
1163,-19,-4
1164,-8,-6
1165,-14,-12
1166,-28,-10
1167,-22,14
1168,97,47
1169,274,30
1170,435,3
1171,468,-22
1172,253,-36
1173,90,-35
1174,76,-22
1175,1,-5
1176,-14,-3
1177,-11,-9
1178,8,-4
1179,-1,0
1180,-16,-6
1181,16,-10
1182,10,0
1183,-5,-6
1184,4,-4
1185,1,-5
1186,7,4
1187,22,-7
1188,22,1
1189,19,11
1190,16,4
1191,7,13
1192,32,12
1193,21,17
1194,13,23
1195,20,26
1196,24,34
1197,24,31
1198,16,34
1199,22,39
1200,16,28
1201,11,34
1202,23,31
1203,19,36
1204,13,22
1205,9,22
1206,-3,2
1207,1,15
1208,-14,19
1209,-9,-6
1210,-30,-5
1211,-27,-9
1212,-33,-7
1213,-38,-10
1214,-28,-6
1215,-28,-4
1216,-30,-1
1217,-30,3
1218,-19,6
1219,-15,10
1220,-11,7
1221,-5,1
1222,-5,4
1223,10,2
1224,9,-1
1225,13,-6
1226,8,-4
1227,-5,0
1228,-19,-2
1229,-21,-5
1230,-20,-4
1231,-24,-2
1232,-21,-7
1233,-20,-10
1234,-27,-9
1235,-21,-6
1236,-3,-4
1237,-1,2
1238,-4,4
1239,-5,5
1240,3,4
1241,3,1
1242,4,-2
1243,4,-6
1244,-13,-9
1245,-28,-7
1246,-29,-7
1247,-32,-9
1248,-38,-13
1249,-28,-17
1250,-28,-11
1251,-24,-7
1252,-24,-10
1253,-42,-12
1254,-64,-12
1255,-13,21
1256,129,35
1257,293,12
1258,431,-17
1259,418,-37
1260,208,-35
1261,35,-26
1262,-3,-18
1263,-13,-7
1264,-27,-4
1265,-33,-2
1266,-45,-1
1267,-36,2
1268,-28,-1
1269,-32,-6
1270,-46,3
1271,-47,4
1272,-45,1
1273,-40,2
1274,-24,3
1275,-28,11
1276,-36,13
1277,-23,9
1278,-19,10
1279,-23,21
