,0,1
0,-22,6
1,-27,1
2,-20,2
3,-27,2
4,-20,6
5,-25,4
6,-7,8
7,-14,6
8,-1,6
9,-1,6
10,9,6
11,16,3
12,33,7
13,29,2
14,38,2
15,35,3
16,35,7
17,27,8
18,31,7
19,16,6
20,11,7
21,7,8
22,1,6
23,-5,4
24,1,6
25,-5,3
26,-3,2
27,-5,3
28,-5,4
29,-7,4
30,-3,4
31,-7,3
32,-5,2
33,-7,3
34,-9,6
35,-7,6
36,-1,6
37,-7,6
38,-5,8
39,-5,8
40,-7,8
41,-3,9
42,-1,9
43,-1,11
44,0,12
45,0,9
46,-1,11
47,1,13
48,1,9
49,0,8
50,-1,9
51,0,9
52,-5,9
53,-5,9
54,0,8
55,-1,9
56,-3,9
57,-5,3
58,-3,7
59,-5,7
60,0,12
61,-5,6
62,-1,4
63,-3,6
64,-3,6
65,-9,6
66,1,4
67,-3,7
68,-1,3
69,-5,7
70,-1,3
71,-7,7
72,-5,8
73,-3,8
74,-1,3
75,0,6
76,-1,8
77,5,12
78,-1,17
79,12,21
80,16,21
81,25,16
82,22,17
83,25,8
84,22,12
85,27,7
86,22,7
87,11,3
88,7,6
89,-7,0
90,-1,1
91,-14,1
92,1,1
93,-11,0
94,-5,4
95,-16,2
96,-11,-3
97,-16,2
98,-12,0
99,-7,3
100,-11,-1
101,-7,0
102,-11,2
103,-7,2
104,-5,2
105,-14,14
106,-44,36
107,9,54
108,196,23
109,316,-72
110,161,-139
111,9,-124
112,-38,-99
113,-35,-54
114,-18,-19
115,-14,-2
116,-12,1
117,-14,4
118,-11,7
119,-12,11
120,-11,11
121,-12,11
122,-11,9
123,-16,14
124,-9,12
125,-9,12
126,-11,14
127,-11,16
128,-12,12
129,-12,13
130,-24,14
131,-9,11
132,-18,13
133,-14,11
134,-18,14
135,-14,9
136,-16,14
137,-12,11
138,-7,16
139,-9,12
140,0,13
141,1,14
142,11,13
143,18,13
144,33,12
145,37,9
146,42,8
147,44,9
148,48,8
149,40,13
150,37,13
151,33,16
152,25,12
153,20,11
154,12,12
155,7,12
156,0,11
157,7,9
158,-1,9
159,0,12
160,-5,12
161,0,7
162,-7,11
163,-3,8
164,0,9
165,-5,7
166,-3,12
167,-5,9
168,-3,8
169,-9,11
170,1,9
171,-1,11
172,0,9
173,-1,13
174,0,16
175,0,18
176,1,13
177,7,14
178,3,14
179,5,16
180,1,18
181,3,14
182,0,14
183,3,13
184,3,13
185,-1,12
186,0,13
187,-1,12
188,-3,11
189,-3,8
190,0,13
191,-1,13
192,-1,8
193,-5,7
194,-3,8
195,-9,9
196,-5,9
197,-3,11
198,-5,8
199,-5,11
200,-3,8
201,-5,7
202,-11,4
203,0,7
204,-5,9
205,-5,8
206,-3,8
207,-7,17
208,-5,13
209,-3,6
210,1,13
211,7,17
212,18,23
213,12,23
214,24,19
215,20,14
216,29,7
217,33,8
218,27,7
219,27,4
220,11,4
221,0,2
222,-1,-1
223,-1,-1
224,-7,-3
225,-12,-2
226,-14,-2
227,-11,-2
228,-18,-2
229,-14,-3
230,-16,0
231,-12,-3
232,-18,0
233,-16,-2
234,-18,-2
235,-14,-4
236,-9,-1
237,-1,-8
238,-29,14
239,-55,29
240,-5,54
241,220,13
242,333,-83
243,166,-155
244,9,-137
245,-48,-114
246,-42,-64
247,-25,-21
248,-25,-6
249,-16,-8
250,-20,2
251,-18,4
252,-24,0
253,-22,-1
254,-20,4
255,-16,9
256,-16,2
257,-22,1
258,-25,8
259,-16,4
260,-35,-1
261,-25,-1
262,-20,13
263,-33,2
264,-31,1
265,-37,-4
266,-31,7
267,-22,11
268,-29,-13
269,-27,-11
270,-9,13
271,-29,-2
272,-20,-28
273,-3,-13
274,-9,2
275,7,-3
276,9,-13
277,18,-12
278,20,-3
279,29,-7
280,31,-7
281,35,-6
282,35,0
283,29,-2
284,20,-1
285,16,-2
286,5,-1
287,1,-1
288,0,-3
289,-5,-2
290,-7,-2
291,-12,-3
292,-14,-3
293,-16,-2
294,-12,-3
295,-9,-2
296,-12,-4
297,-12,-3
298,-12,-4
299,-20,-2
300,-16,-2
301,-12,-2
302,-12,-2
303,-11,3
304,-14,0
305,-11,0
306,-16,3
307,-3,3
308,-7,3
309,-7,2
310,-9,4
311,-9,1
312,-11,3
313,-9,3
314,-1,4
315,-12,0
316,-7,3
317,-14,3
318,-9,1
319,-18,7
320,-7,-2
321,-11,-1
322,-11,-1
323,-12,1
324,-14,-1
325,-12,2
326,-18,0
327,-7,0
328,-12,2
329,-12,4
330,-12,1
331,-12,-1
332,-14,-2
333,-7,-4
334,-7,-1
335,-11,2
336,-11,1
337,-11,2
338,-12,8
339,-12,9
340,-11,7
341,-9,-1
342,-7,-3
343,-5,-8
344,-1,-3
345,0,1
346,5,8
347,12,11
348,14,14
349,12,17
350,16,7
351,14,3
352,22,2
353,14,2
354,7,1
355,-1,1
356,-12,-8
357,-18,-4
358,-22,-4
359,-16,-4
360,-24,-6
361,-24,-4
362,-24,-4
363,-22,-3
364,-33,-1
365,-20,0
366,-31,-1
367,-24,-2
368,-29,-2
369,-24,-4
370,-29,3
371,-16,-2
372,-18,3
373,-61,19
374,-59,50
375,85,44
376,312,-21
377,244,-124
378,66,-126
379,-40,-115
380,-50,-77
381,-42,-34
382,-29,-12
383,-35,2
384,-22,2
385,-29,4
386,-24,2
387,-27,6
388,-24,3
389,-29,8
390,-25,8
391,-20,9
392,-25,8
393,-22,7
394,-27,6
395,-25,8
396,-37,12
397,-18,6
398,-33,4
399,-24,7
400,-35,4
401,-29,8
402,-33,9
403,-24,8
404,-27,9
405,-22,8
406,-20,9
407,-16,9
408,-12,9
409,0,8
410,9,9
411,12,11
412,22,7
413,27,3
414,31,8
415,38,11
416,37,8
417,33,6
418,27,6
419,22,7
420,5,9
421,7,8
422,0,6
423,-3,4
424,-9,7
425,-7,2
426,-16,8
427,-7,3
428,-9,7
429,-12,3
430,-14,2
431,-14,0
432,-12,3
433,-18,4
434,-7,3
435,-16,3
436,-11,7
437,-16,4
438,-9,6
439,-14,11
440,-5,6
441,-5,9
442,-5,8
443,-5,11
444,-3,9
445,-5,9
446,0,9
447,-1,9
448,0,7
449,-3,8
450,-1,9
451,-7,11
452,0,7
453,-3,2
454,-3,7
455,-5,8
456,-5,2
457,-5,4
458,-7,3
459,1,6
460,-9,2
461,-1,3
462,-7,6
463,-5,2
464,-11,4
465,0,0
466,-1,4
467,-5,3
468,-1,3
469,-5,2
470,0,3
471,-11,3
472,3,3
473,-5,4
474,1,1
475,-3,2
476,0,1
477,-1,7
478,7,9
479,11,16
480,9,22
481,20,18
482,18,11
483,18,8
484,16,7
485,24,3
486,18,3
487,11,2
488,0,0
489,-9,-2
490,-16,1
491,-16,-1
492,-12,-2
493,-18,-2
494,-18,-3
495,-18,-4
496,-20,-3
497,-27,-3
498,-18,-2
499,-20,-1
500,-18,-1
501,-20,0
502,-20,-3
503,-18,-2
504,-11,-4
505,-14,4
506,-51,19
507,-48,52
508,127,39
509,318,-39
510,218,-135
511,50,-140
512,-42,-122
513,-55,-80
514,-33,-37
515,-25,-13
516,-22,-3
517,-29,0
518,-14,2
519,-22,2
520,-18,3
521,-20,4
522,-20,1
523,-20,7
524,-24,3
525,-9,3
526,-20,3
527,-16,11
528,-22,4
529,-24,2
530,-24,4
531,-25,4
532,-22,2
533,-25,2
534,-25,1
535,-29,2
536,-25,2
537,-29,3
538,-20,6
539,-18,4
540,-16,2
541,-9,2
542,-1,2
543,3,4
544,9,4
545,22,2
546,25,1
547,33,1
548,33,0
549,31,0
550,27,3
551,29,4
552,20,3
553,11,3
554,5,3
555,-1,3
556,-7,3
557,-11,3
558,-7,4
559,-12,1
560,-12,-1
561,-12,-1
562,-14,1
563,-18,1
564,-14,-1
565,-12,-1
566,-14,2
567,-16,3
568,-14,1
569,-14,2
570,-12,2
571,-7,3
572,-9,3
573,-7,2
574,-9,6
575,-5,6
576,-9,7
577,-3,7
578,-1,7
579,-3,8
580,0,4
581,-5,3
582,-1,3
583,-7,6
584,0,4
585,-5,4
586,-3,1
587,-7,3
588,-3,0
589,-9,3
590,-9,3
591,-1,2
592,-11,0
593,-5,-1
594,-11,0
595,-7,1
596,-14,3
597,-5,0
598,-5,1
599,-7,0
600,-9,0
601,-7,-4
602,-11,4
603,-9,-2
604,-1,-2
605,-9,-3
606,-3,-1
607,-9,2
608,-3,-1
609,-7,4
610,3,4
611,3,7
612,7,12
613,11,17
614,18,13
615,14,11
616,16,6
617,22,3
618,20,3
619,16,2
620,9,1
621,0,2
622,-12,-2
623,-7,-4
624,-14,-3
625,-14,-3
626,-18,-2
627,-16,-6
628,-22,-4
629,-16,-3
630,-14,-3
631,-16,-3
632,-20,-4
633,-16,-4
634,-22,0
635,-16,0
636,-14,-4
637,-9,-9
638,-16,1
639,-44,13
640,-53,42
641,81,42
642,303,-21
643,257,-125
644,72,-139
645,-37,-130
646,-48,-81
647,-35,-39
648,-14,-16
649,-20,-6
650,-12,-1
651,-22,0
652,-14,2
653,-25,4
654,-11,3
655,-18,3
656,-14,4
657,-22,2
658,-18,1
659,-25,4
660,-22,2
661,-20,2
662,-24,2
663,-22,6
664,-27,3
665,-27,3
666,-29,2
667,-22,1
668,-25,4
669,-24,-6
670,-25,6
671,-22,12
672,-27,4
673,-5,2
674,-11,6
675,1,6
676,0,0
677,12,-6
678,12,8
679,25,6
680,33,4
681,35,2
682,33,3
683,29,3
684,24,9
685,16,8
686,18,4
687,7,2
688,1,4
689,-3,2
690,-3,3
691,-9,6
692,-3,6
693,-9,1
694,-7,1
695,-9,0
696,-5,1
697,7,0
698,29,-19
699,61,-33
700,120,-49
701,194,-68
702,292,-73
703,364,-63
704,350,-80
705,314,-111
706,316,-137
707,214,-139
708,50,-105
709,-11,-54
710,-16,-18
711,-24,-3
712,-35,1
713,-38,7
714,-42,4
715,-50,9
716,-44,8
717,-51,8
718,-50,7
719,-53,9
720,-51,7
721,-61,8
722,-51,12
723,-59,16
724,-59,16
725,-64,17
726,-61,16
727,-68,22
728,-62,28
729,-64,26
730,-62,32
731,-68,38
732,-62,38
733,-70,48
734,-64,54
735,-59,63
736,-64,60
737,-57,65
738,-55,63
739,-51,70
740,-42,69
741,-27,70
742,-25,67
743,-12,68
744,-3,60
745,7,57
746,12,39
747,24,33
748,22,22
749,27,17
750,25,22
751,22,19
752,11,16
753,5,12
754,-7,13
755,-9,12
756,-11,8
757,-14,12
758,-14,11
759,-12,9
760,-16,11
761,-16,12
762,-18,9
763,-24,11
764,-18,9
765,-18,8
766,-18,9
767,-20,9
768,-20,8
769,-25,9
770,-14,8
771,-16,9
772,-18,14
773,-20,11
774,-16,8
775,-25,12
776,-14,9
777,-14,11
778,-12,16
779,-14,11
780,-7,7
781,-5,9
782,-25,24
783,-48,52
784,35,67
785,283,7
786,307,-95
787,98,-108
788,-22,-95
789,-59,-69
790,-31,-33
791,-18,-6
792,-11,2
793,-25,13
794,-9,8
795,-22,11
796,-11,7
797,-22,11
798,-14,11
799,-25,14
800,-9,13
801,-20,11
802,-12,12
803,-24,8
804,-16,11
805,-27,11
806,-12,9
807,-22,11
808,-18,8
809,-22,8
810,-20,11
811,-18,13
812,-11,11
813,-12,7
814,-7,8
815,-5,9
816,-3,13
817,1,7
818,12,4
819,12,7
820,18,7
821,20,8
822,24,6
823,33,4
824,35,6
825,29,9
826,25,9
827,18,12
828,11,13
829,9,8
830,1,9
831,-3,13
832,-5,8
833,-9,8
834,-11,9
835,-5,14
836,-5,11
837,-5,12
838,-5,8
839,-1,11
840,-1,7
841,5,13
842,3,11
843,5,13
844,5,13
845,3,12
846,1,12
847,7,14
848,3,9
849,1,9
850,1,7
851,-5,14
852,-1,8
853,0,8
854,-7,9
855,-5,12
856,-3,6
857,-7,8
858,-5,7
859,-3,7
860,-9,9
861,-7,7
862,-7,3
863,-11,8
864,-11,6
865,-3,6
866,-11,4
867,-9,4
868,-11,2
869,-9,2
870,-12,7
871,-1,11
872,-3,13
873,1,13
874,1,17
875,9,22
876,11,22
877,14,11
878,12,4
879,16,8
880,9,8
881,5,3
882,-1,1
883,-9,1
884,-18,0
885,-22,-1
886,-24,-4
887,-25,-2
888,-25,-4
889,-24,-3
890,-25,-2
891,-24,-4
892,-29,-3
893,-24,-4
894,-31,-2
895,-22,-1
896,-25,1
897,-22,-2
898,-24,-1
899,-18,-6
900,-14,2
901,-50,14
902,-57,37
903,-1,55
904,264,3
905,294,-116
906,92,-130
907,-27,-120
908,-61,-91
909,-40,-44
910,-29,-16
911,-27,-3
912,-22,1
913,-31,7
914,-20,4
915,-24,7
916,-24,6
917,-24,7
918,-24,7
919,-24,6
920,-25,4
921,-22,6
922,-24,8
923,-25,8
924,-25,2
925,-29,2
926,-27,7
927,-22,7
928,-27,6
929,-25,3
930,-25,2
931,-25,4
932,-27,4
933,-16,2
934,-12,4
935,-7,6
936,-5,4
937,3,3
938,3,3
939,12,3
940,18,7
941,24,1
942,25,3
943,25,2
944,27,2
945,22,2
946,24,6
947,11,4
948,11,3
949,-1,2
950,0,3
951,-14,7
952,-5,3
953,-11,2
954,-12,2
955,-14,3
956,-14,1
957,-12,3
958,-18,3
959,-7,4
960,-14,-1
961,-9,2
962,-14,6
963,-9,1
964,-12,6
965,-7,6
966,-1,11
967,-5,7
968,-1,8
969,-7,11
970,0,7
971,-3,8
972,3,11
973,-5,8
974,1,8
975,-3,4
976,-5,2
977,-7,6
978,-1,4
979,-3,4
980,-7,2
981,-5,4
982,-9,3
983,-11,3
984,-7,1
985,-5,6
986,-7,8
987,-9,1
988,-7,-3
989,-11,2
990,-11,3
991,-7,4
992,-11,2
993,-9,0
994,-12,4
995,-9,2
996,-14,-3
997,-3,4
998,-9,2
999,-5,-2
1000,-9,1
1001,-7,2
1002,-11,2
1003,-3,1
1004,-3,2
1005,-7,16
1006,-3,18
1007,1,4
1008,9,13
1009,7,17
1010,22,6
1011,11,6
1012,18,17
1013,11,7
1014,11,-9
1015,0,-1
1016,-3,-2
1017,-11,-8
1018,-18,-1
1019,-16,-1
1020,-22,-3
1021,-24,-4
1022,-24,-4
1023,-20,2
1024,-24,2
1025,-24,-4
1026,-24,-4
1027,-24,-4
1028,-27,-2
1029,-22,-3
1030,-20,-3
1031,-18,-4
1032,-9,-4
1033,-24,3
1034,-55,22
1035,-44,50
1036,144,32
1037,318,-42
1038,218,-122
1039,44,-127
1040,-48,-114
1041,-59,-67
1042,-29,-33
1043,-24,-11
1044,-24,-4
1045,-25,-2
1046,-22,2
1047,-27,4
1048,-25,1
1049,-22,2
1050,-24,7
1051,-20,6
1052,-31,2
1053,-20,1
1054,-33,7
1055,-22,6
1056,-27,4
1057,-25,3
1058,-31,3
1059,-27,3
1060,-33,2
1061,-29,3
1062,-22,6
1063,-29,3
1064,-24,3
1065,-27,1
1066,-22,4
1067,-24,6
1068,-9,6
1069,-9,3
1070,0,4
1071,0,3
1072,9,3
1073,9,3
1074,22,3
1075,25,3
1076,24,3
1077,22,2
1078,18,2
1079,11,6
1080,5,4
1081,0,3
1082,-3,3
1083,-9,4
1084,-14,1
1085,-14,1
1086,-16,2
1087,-11,1
1088,-12,-1
1089,-11,-1
1090,0,-4
1091,20,-23
1092,50,-39
1093,111,-52
1094,185,-75
1095,279,-69
1096,362,-69
1097,333,-89
1098,292,-116
1099,307,-145
1100,192,-150
1101,27,-113
1102,-18,-53
1103,-24,-18
1104,-31,-8
1105,-44,0
1106,-40,-1
1107,-48,2
1108,-48,1
1109,-51,2
1110,-53,2
1111,-55,4
1112,-57,2
1113,-50,4
1114,-61,6
1115,-55,6
1116,-61,6
1117,-62,6
1118,-62,7
1119,-57,9
1120,-62,14
1121,-62,17
1122,-62,17
1123,-62,23
1124,-68,29
1125,-57,34
1126,-59,34
1127,-59,39
1128,-57,44
1129,-51,49
1130,-57,57
1131,-42,57
1132,-42,57
1133,-33,49
1134,-31,50
1135,-18,43
1136,-14,44
1137,1,39
1138,12,44
1139,16,33
1140,24,22
1141,20,13
1142,24,9
1143,24,11
1144,31,11
1145,20,4
1146,12,4
1147,0,2
1148,-9,0
1149,-14,3
1150,-11,4
1151,-16,3
1152,-16,-1
1153,-20,-2
1154,-22,-2
1155,-25,-2
1156,-20,-2
1157,-24,-1
1158,-22,0
1159,-27,-2
1160,-24,-4
1161,-29,-3
1162,-22,-1
1163,-25,0
1164,-22,1
1165,-25,0
1166,-20,0
1167,-29,3
1168,-18,1
1169,-20,-1
1170,-18,2
1171,-20,4
1172,-16,-2
1173,-16,3
1174,-12,-2
1175,1,3
1176,-50,21
1177,-42,45
1178,66,58
1179,314,-27
1180,242,-137
1181,55,-126
1182,-40,-106
1183,-46,-74
1184,-24,-33
1185,-14,-12
1186,-18,-4
1187,-12,-3
1188,-18,-4
1189,-18,-2
1190,-24,-2
1191,-22,0
1192,-22,0
1193,-18,-1
1194,-18,1
1195,-24,2
1196,-22,0
1197,-24,1
1198,-25,3
1199,-20,3
1200,-25,0
1201,-22,-2
1202,-25,-4
1203,-22,2
1204,-25,0
1205,-9,-3
1206,-18,-2
1207,-9,-2
1208,-11,-2
1209,-5,0
1210,-5,-3
1211,9,1
1212,5,-1
1213,14,-2
1214,16,-6
1215,24,-3
1216,24,-3
1217,33,-3
1218,25,-2
1219,24,-1
1220,16,0
1221,9,0
1222,1,2
1223,-1,2
1224,-7,-1
1225,-11,-1
1226,-14,-2
1227,-18,0
1228,-16,-2
1229,-11,-3
1230,-12,-1
1231,-16,1
1232,-11,0
1233,-12,3
1234,-7,1
1235,-1,3
1236,-5,2
1237,-1,3
1238,-5,3
1239,-3,3
1240,-3,4
1241,3,0
1242,-5,6
1243,-3,6
1244,-3,3
1245,-7,0
1246,-11,2
1247,-3,3
1248,-11,1
1249,-7,-3
1250,-12,-1
1251,-12,1
1252,-16,3
1253,-9,3
1254,-12,1
1255,-11,0
1256,-14,-3
1257,-14,-1
1258,-14,1
1259,-11,1
1260,-12,0
1261,-9,0
1262,-7,2
1263,-7,8
1264,-5,8
1265,1,13
1266,5,19
1267,9,14
1268,11,9
1269,12,4
1270,9,7
1271,16,6
1272,9,4
1273,1,1
1274,-9,0
1275,-16,1
1276,-27,0
1277,-24,-6
1278,-22,-1
1279,-27,-3
