,0,1
0,-7,3
1,-4,9
2,-1,9
3,2,4
4,-2,4
5,-13,1
6,-12,-6
7,-12,-15
8,-18,-16
9,-18,-12
10,-19,-14
11,-23,-14
12,-17,-15
13,-9,-16
14,-15,-16
15,-14,-10
16,-12,-9
17,-12,-3
18,-20,-16
19,9,-27
20,73,45
21,166,138
22,279,291
23,167,335
24,13,181
25,-29,46
26,-5,8
27,-15,7
28,-2,-3
29,-20,-10
30,-21,-15
31,-18,-21
32,-34,-26
33,-41,-24
34,-31,-24
35,-30,-25
36,-30,-24
37,-29,-25
38,-31,-27
39,-37,-31
40,-35,-33
41,-35,-33
42,-34,-30
43,-26,-34
44,-32,-31
45,-35,-32
46,-28,-31
47,-34,-32
48,-26,-32
49,-30,-34
50,-31,-34
51,-30,-32
52,-12,-28
53,-24,-28
54,-21,-31
55,-13,-24
56,0,-25
57,-10,-10
58,0,-15
59,3,-3
60,14,1
61,6,4
62,14,8
63,20,10
64,19,12
65,15,12
66,9,9
67,10,8
68,16,10
69,9,12
70,15,7
71,16,7
72,8,8
73,3,9
74,6,6
75,2,4
76,20,2
77,16,6
78,9,3
79,1,2
80,8,-1
81,6,-2
82,12,2
83,7,0
84,8,-4
85,8,2
86,13,1
87,-4,1
88,3,-3
89,3,2
90,1,-2
91,-4,-4
92,0,-1
93,-4,-2
94,0,-6
95,-5,-7
96,-9,-3
97,0,-2
98,10,-3
99,-12,-6
100,-13,-3
101,-3,-8
102,-7,-3
103,-9,-8
104,-5,-9
105,-14,-4
106,-4,-3
107,-6,-4
108,-6,-6
109,-5,-4
110,-8,-4
111,-8,-3
112,-3,-7
113,0,-7
114,14,2
115,14,8
116,15,7
117,13,7
118,19,6
119,19,8
120,16,6
121,3,4
122,4,6
123,1,7
124,5,4
125,1,9
126,-3,4
127,-9,-1
128,-18,-13
129,-18,-18
130,-15,-12
131,-17,-13
132,-14,-12
133,-13,-12
134,-17,-12
135,-16,-12
136,-8,-12
137,-9,-9
138,-10,-2
139,-12,-13
140,15,-13
141,72,51
142,166,138
143,239,270
144,153,309
145,39,185
146,0,75
147,4,33
148,0,18
149,-8,0
150,-15,-9
151,-18,-16
152,-14,-20
153,-16,-20
154,-17,-19
155,-17,-19
156,-20,-26
157,-17,-22
158,-25,-21
159,-26,-27
160,-19,-21
161,-23,-20
162,-19,-19
163,-23,-31
164,-23,-24
165,-17,-22
166,-19,-22
167,-20,-27
168,-23,-28
169,-19,-26
170,-23,-27
171,-15,-31
172,-14,-25
173,-10,-20
174,-9,-25
175,2,-21
176,-3,-19
177,5,-19
178,14,-13
179,10,-10
180,9,-4
181,10,1
182,16,3
183,26,7
184,21,10
185,17,12
186,18,12
187,15,10
188,21,10
189,20,8
190,7,7
191,6,1
192,7,4
193,5,7
194,12,3
195,9,-1
196,5,2
197,2,-10
198,10,0
199,12,1
200,4,-8
201,3,-1
202,8,-3
203,7,-8
204,-3,-4
205,-3,-4
206,-3,-4
207,-5,-9
208,1,-8
209,-1,-8
210,-6,-9
211,-4,-6
212,-6,-7
213,-6,-10
214,-10,-14
215,-12,-12
216,-10,-9
217,-4,-8
218,-5,-10
219,-16,-19
220,-15,-16
221,-23,-6
222,-8,-14
223,-14,-9
224,-13,-13
225,-15,-14
226,-17,-14
227,-14,-9
228,-10,-8
229,-12,-8
230,-12,-13
231,-17,-13
232,-16,-13
233,-15,-9
234,-13,-10
235,-2,-8
236,5,-4
237,7,1
238,9,6
239,6,4
240,10,2
241,16,9
242,8,8
243,1,0
244,-3,2
245,-2,6
246,0,2
247,-4,0
248,-7,-7
249,-9,-4
250,-23,-14
251,-26,-22
252,-23,-20
253,-25,-15
254,-27,-19
255,-20,-20
256,-25,-18
257,-16,-18
258,-19,-14
259,-21,-16
260,-9,-10
261,-15,-21
262,-1,-36
263,77,40
264,161,137
265,263,255
266,180,339
267,21,208
268,-30,58
269,-24,10
270,-14,-1
271,-18,-12
272,-24,-21
273,-30,-25
274,-36,-24
275,-32,-26
276,-26,-27
277,-29,-28
278,-38,-31
279,-35,-39
280,-40,-32
281,-42,-32
282,-36,-33
283,-41,-33
284,-36,-36
285,-43,-40
286,-38,-42
287,-42,-40
288,-27,-38
289,-21,-34
290,-27,-36
291,-39,-39
292,-42,-45
293,-37,-37
294,-31,-36
295,-27,-36
296,-20,-34
297,-14,-30
298,-14,-31
299,-18,-26
300,-13,-22
301,-1,-22
302,5,-15
303,9,-7
304,7,-10
305,5,7
306,4,9
307,15,7
308,23,9
309,20,6
310,9,9
311,7,7
312,1,6
313,7,4
314,-1,4
315,10,1
316,6,3
317,-2,2
318,-2,-1
319,2,-6
320,12,0
321,4,-2
322,4,0
323,8,-1
324,8,-3
325,4,-2
326,6,-2
327,10,-6
328,9,-3
329,7,-2
330,1,-2
331,-7,-4
332,3,-2
333,4,-2
334,0,-8
335,-8,-7
336,4,-7
337,-10,-3
338,-7,-6
339,-2,-9
340,-10,-9
341,-3,-8
342,-12,-10
343,-9,-10
344,-2,-8
345,-3,-6
346,-8,-4
347,-2,-6
348,-2,-6
349,-8,-6
350,-8,-6
351,-4,-8
352,-10,-8
353,-9,-10
354,-1,-9
355,-7,-7
356,-14,-10
357,3,-6
358,14,0
359,17,4
360,5,7
361,14,8
362,19,9
363,34,14
364,24,14
365,9,15
366,18,15
367,18,3
368,10,9
369,5,8
370,8,7
371,-5,1
372,-13,-4
373,-16,-12
374,-17,-12
375,-8,-13
376,-6,-13
377,-15,-16
378,-10,-14
379,-9,-8
380,-6,-10
381,-6,-4
382,-1,2
383,1,-13
384,42,-6
385,107,66
386,194,154
387,253,284
388,164,319
389,38,207
390,-2,86
391,4,36
392,8,16
393,4,4
394,-15,-6
395,-7,-12
396,-10,-13
397,-19,-14
398,-16,-16
399,-13,-18
400,-19,-16
401,-15,-22
402,3,-20
403,-2,-21
404,-14,-21
405,-23,-21
406,-25,-21
407,-20,-25
408,-15,-24
409,-16,-22
410,-17,-25
411,-8,-26
412,-3,-26
413,-10,-21
414,-5,-24
415,-5,-25
416,-10,-25
417,-9,-25
418,-2,-21
419,5,-19
420,19,-12
421,12,-14
422,18,-12
423,10,-2
424,20,-6
425,41,7
426,28,12
427,19,18
428,45,10
429,30,20
430,32,14
431,15,15
432,28,14
433,23,12
434,23,13
435,17,13
436,9,9
437,14,9
438,5,6
439,15,2
440,18,8
441,7,7
442,16,2
443,12,1
444,3,4
445,25,4
446,10,3
447,4,-2
448,13,0
449,4,-1
450,4,0
451,8,-2
452,-3,2
453,0,0
454,1,-1
455,0,-6
456,4,-4
457,-3,0
458,0,-3
459,-6,-6
460,-8,-8
461,-7,-8
462,-6,-9
463,-20,-2
464,-4,-8
465,8,-4
466,-8,-6
467,-12,-9
468,-16,-14
469,-18,-9
470,-4,-3
471,-3,-4
472,-15,-7
473,-16,-9
474,-9,-7
475,-13,-8
476,-9,-8
477,-9,-9
478,-12,-10
479,-8,-9
480,7,-14
481,-6,-4
482,10,-6
483,6,4
484,-1,9
485,9,3
486,14,6
487,21,14
488,21,13
489,7,12
490,-2,9
491,-4,3
492,1,4
493,-5,3
494,-6,-3
495,-20,-10
496,-27,-20
497,-32,-20
498,-34,-19
499,-12,-21
500,-20,-22
501,-32,-19
502,-36,-19
503,-19,-18
504,-18,-18
505,-20,-10
506,-20,-9
507,-6,-30
508,36,-10
509,98,77
510,192,168
511,231,286
512,121,296
513,5,173
514,-25,56
515,1,15
516,0,3
517,-24,-1
518,-23,-13
519,-34,-19
520,-17,-20
521,-19,-25
522,-36,-31
523,-36,-24
524,-30,-27
525,-27,-30
526,-31,-32
527,-15,-33
528,-36,-34
529,-31,-31
530,-36,-32
531,-35,-34
532,-39,-37
533,-35,-33
534,-29,-36
535,-24,-36
536,-23,-37
537,-25,-34
538,-34,-36
539,-29,-40
540,-24,-38
541,-20,-34
542,-15,-31
543,-17,-37
544,-9,-33
545,-4,-30
546,-2,-25
547,-2,-15
548,21,-13
549,16,-9
550,8,-3
551,8,-1
552,13,2
553,19,-1
554,13,0
555,0,1
556,2,3
557,2,-2
558,1,0
559,-7,-12
560,2,-6
561,6,-3
562,5,-8
563,-14,-10
564,-12,-7
565,-8,-7
566,-7,-12
567,-2,-14
568,-3,-13
569,-5,-10
570,-2,-9
571,-1,-10
572,-4,-13
573,-3,-13
574,-4,-12
575,-9,-13
576,-6,-15
577,-7,-12
578,4,-12
579,-8,-15
580,-19,-16
581,-23,-14
582,-16,-16
583,-16,-16
584,-13,-15
585,-23,-22
586,-13,-18
587,-20,-18
588,-8,-22
589,-16,-18
590,16,-18
591,-21,-20
592,-25,-18
593,-30,-19
594,-21,-20
595,-23,-18
596,-6,-18
597,-14,-19
598,-9,-16
599,-5,-18
600,6,-21
601,-28,-24
602,-27,-21
603,-6,-18
604,7,-15
605,7,-13
606,1,-4
607,6,-3
608,16,-3
609,18,-4
610,6,0
611,5,6
612,7,6
613,6,4
614,0,1
615,-15,-1
616,-13,-1
617,-18,-6
618,-17,-10
619,-29,-20
620,-27,-26
621,-28,-27
622,-27,-26
623,-36,-26
624,-21,-25
625,-30,-26
626,-25,-24
627,-18,-22
628,-21,-18
629,-25,-10
630,-35,-27
631,17,-36
632,79,45
633,169,137
634,275,272
635,187,337
636,25,222
637,-40,61
638,-40,2
639,-2,-6
640,-34,-15
641,-26,-20
642,-35,-25
643,-23,-30
644,-26,-32
645,-37,-36
646,-40,-32
647,-47,-38
648,-43,-37
649,-42,-36
650,-43,-37
651,-35,-40
652,-37,-42
653,-30,-39
654,-30,-43
655,-41,-42
656,-43,-38
657,-39,-43
658,-36,-46
659,-46,-43
660,-42,-44
661,-29,-40
662,-34,-42
663,-40,-39
664,-28,-43
665,-24,-40
666,-29,-37
667,-20,-34
668,-18,-31
669,-14,-27
670,-5,-26
671,1,-20
672,3,-14
673,5,-8
674,8,-3
675,8,-3
676,16,0
677,6,0
678,7,1
679,3,-2
680,4,2
681,-8,1
682,-8,0
683,0,-2
684,-2,-2
685,-2,-6
686,5,-1
687,-2,-7
688,-3,-4
689,-5,-8
690,-5,-3
691,-9,-8
692,5,-7
693,7,-4
694,-7,-7
695,3,-12
696,0,-6
697,0,-2
698,13,-4
699,1,-6
700,-9,-3
701,-6,-6
702,-9,-8
703,-9,-8
704,0,-9
705,-9,-8
706,-3,-9
707,3,-13
708,-10,-10
709,-18,-7
710,-21,-7
711,-16,-13
712,-10,-9
713,-2,-9
714,-3,-7
715,-2,-10
716,0,-13
717,-6,-7
718,-28,-13
719,0,-8
720,-20,-13
721,-20,-4
722,-12,-10
723,-5,-10
724,-13,-9
725,-1,-8
726,-9,-3
727,-5,-7
728,7,-4
729,16,0
730,-6,4
731,-3,7
732,14,6
733,19,9
734,12,13
735,12,9
736,9,12
737,1,6
738,3,3
739,3,6
740,-10,1
741,-13,-4
742,-19,-10
743,-35,-16
744,-14,-19
745,-29,-19
746,-5,-20
747,-26,-27
748,-34,-24
749,-34,-14
750,-23,-16
751,-17,-12
752,-23,-13
753,-23,-8
754,-2,-34
755,68,30
756,155,117
757,267,240
758,189,327
759,29,237
760,-8,92
761,-1,32
762,-20,16
763,-24,-1
764,-24,-12
765,-21,-19
766,-29,-26
767,-28,-24
768,-28,-27
769,-25,-27
770,-23,-27
771,-21,-31
772,-28,-28
773,-37,-27
774,-31,-28
775,-27,-31
776,-24,-30
777,-34,-33
778,-27,-32
779,-27,-28
780,-24,-30
781,-27,-30
782,-24,-30
783,-13,-32
784,-20,-30
785,-36,-32
786,-6,-32
787,-6,-33
788,-13,-36
789,-18,-31
790,-10,-32
791,-12,-20
792,8,-24
793,2,-16
794,9,-9
795,23,-6
796,21,-1
797,16,4
798,24,6
799,21,9
800,21,10
801,23,9
802,16,4
803,9,1
804,8,4
805,1,9
806,5,7
807,7,3
808,6,3
809,7,3
810,6,4
811,18,3
812,19,0
813,8,-1
814,0,2
815,7,1
816,4,-3
817,2,-3
818,7,-3
819,12,-6
820,3,0
821,4,1
822,10,-1
823,2,-2
824,4,-3
825,3,-3
826,5,-2
827,0,-4
828,0,-4
829,4,-4
830,2,-2
831,0,-7
832,-2,-4
833,-12,-6
834,-6,-6
835,3,-6
836,-1,-4
837,-9,-6
838,-15,-3
839,-10,-6
840,-3,-6
841,-8,-7
842,-9,-7
843,-7,-7
844,-7,-3
845,0,-6
846,-12,-6
847,8,-7
848,2,-8
849,-13,-6
850,-18,-4
851,-10,-9
852,-9,-7
853,1,-7
854,9,-2
855,3,-1
856,5,12
857,19,4
858,18,4
859,19,3
860,29,16
861,15,13
862,4,14
863,6,7
864,8,8
865,10,6
866,6,4
867,-8,-1
868,-17,-8
869,-16,-14
870,-25,-16
871,-27,-18
872,-26,-19
873,-25,-18
874,-21,-15
875,-15,-18
876,-13,-13
877,-8,-13
878,-5,-6
879,-8,-15
880,20,-15
881,82,48
882,182,122
883,245,245
884,160,310
885,45,228
886,-1,99
887,-1,34
888,-8,10
889,-14,-1
890,-20,-14
891,-21,-19
892,-29,-22
893,-25,-25
894,-31,-26
895,-31,-30
896,-27,-31
897,-28,-33
898,-5,-30
899,-30,-32
900,-32,-32
901,-28,-32
902,-24,-34
903,-32,-33
904,-37,-36
905,-29,-37
906,-34,-38
907,-27,-42
908,-32,-38
909,-29,-38
910,-30,-42
911,-26,-40
912,-18,-40
913,-23,-38
914,-23,-36
915,-21,-36
916,-12,-32
917,-2,-30
918,-2,-27
919,3,-25
920,8,-20
921,6,-19
922,12,-12
923,6,-4
924,3,-1
925,2,-4
926,5,-2
927,3,-4
928,3,-1
929,3,-2
930,5,-6
931,-2,-14
932,0,-7
933,-6,-8
934,4,-8
935,0,-10
936,-16,-13
937,-12,-13
938,-12,-10
939,-16,-13
940,-8,-15
941,-3,-14
942,-10,-18
943,-16,-15
944,-10,-13
945,-3,-13
946,1,-12
947,-8,-16
948,-9,-16
949,-3,-12
950,-8,-14
951,-8,-14
952,-18,-18
953,-14,-15
954,-25,-18
955,-30,-16
956,-10,-21
957,-12,-21
958,-15,-15
959,-34,-22
960,-23,-15
961,-15,-13
962,-20,-19
963,-23,-22
964,-21,-20
965,-14,-19
966,-18,-16
967,-25,-19
968,-13,-18
969,-16,-18
970,-25,-16
971,-30,-15
972,-23,-16
973,-16,-13
974,-21,-19
975,-5,-16
976,-13,-18
977,-29,-12
978,-1,-12
979,2,-4
980,2,-3
981,-4,-3
982,9,-1
983,12,3
984,5,7
985,-6,3
986,-5,2
987,-8,-1
988,-4,-1
989,0,-3
990,-8,-3
991,-21,-8
992,-16,-20
993,-24,-24
994,-21,-19
995,-29,-18
996,-37,-21
997,-31,-25
998,-24,-18
999,-25,-14
1000,-15,-15
1001,-17,-13
1002,-12,-7
1003,-26,-16
1004,16,-37
1005,72,18
1006,142,125
1007,258,237
1008,241,345
1009,59,257
1010,-32,98
1011,-24,18
1012,-14,2
1013,-13,-4
1014,-15,-15
1015,-28,-19
1016,-17,-24
1017,-18,-25
1018,-25,-31
1019,-40,-32
1020,-36,-28
1021,-36,-32
1022,-30,-37
1023,-24,-36
1024,-39,-38
1025,-36,-44
1026,-31,-36
1027,-38,-39
1028,-32,-40
1029,-34,-42
1030,-35,-42
1031,-26,-43
1032,-16,-38
1033,-21,-39
1034,-39,-39
1035,-42,-40
1036,-35,-42
1037,-32,-34
1038,-26,-39
1039,-23,-42
1040,-19,-38
1041,-12,-32
1042,-3,-32
1043,-10,-21
1044,5,-21
1045,3,-14
1046,1,-12
1047,8,-7
1048,12,-4
1049,20,1
1050,21,1
1051,5,0
1052,5,-3
1053,9,-3
1054,1,-2
1055,-1,-2
1056,-3,-4
1057,-6,-3
1058,-5,-3
1059,1,-9
1060,0,-6
1061,3,-6
1062,3,-7
1063,3,-8
1064,2,-8
1065,3,-9
1066,-3,-9
1067,0,-10
1068,5,-6
1069,1,-6
1070,4,-8
1071,6,-9
1072,-2,-9
1073,-2,-9
1074,0,-8
1075,-3,-9
1076,-8,-9
1077,-8,-8
1078,-4,-8
1079,-4,-12
1080,-5,-12
1081,-10,-9
1082,-9,-13
1083,-9,-15
1084,-12,-9
1085,2,-8
1086,-1,-8
1087,12,-14
1088,-21,-9
1089,-24,-15
1090,-13,-8
1091,-14,-12
1092,-5,-8
1093,-16,-9
1094,-10,-10
1095,-5,-8
1096,2,-8
1097,-2,-8
1098,-5,-8
1099,-18,-8
1100,-10,-9
1101,-5,-8
1102,-4,-6
1103,4,-1
1104,16,2
1105,7,6
1106,9,4
1107,23,0
1108,20,2
1109,9,9
1110,6,9
1111,3,7
1112,9,2
1113,4,3
1114,-5,6
1115,-2,2
1116,-10,-2
1117,-25,-7
1118,-23,-13
1119,-26,-16
1120,-18,-16
1121,-15,-10
1122,-19,-15
1123,-18,-13
1124,-13,-10
1125,-10,-7
1126,-8,-10
1127,-10,-4
1128,-4,-10
1129,36,-10
1130,97,51
1131,185,143
1132,258,258
1133,170,320
1134,46,222
1135,1,97
1136,-3,39
1137,-5,21
1138,-8,6
1139,-15,-6
1140,-14,-13
1141,-15,-13
1142,-9,-15
1143,-12,-16
1144,-2,-19
1145,-23,-18
1146,-35,-18
1147,-16,-21
1148,-30,-22
1149,-14,-19
1150,-29,-27
1151,-26,-25
1152,-29,-24
1153,-21,-25
1154,-29,-22
1155,-25,-27
1156,-24,-28
1157,-25,-27
1158,-27,-27
1159,-17,-27
1160,-14,-30
1161,-4,-30
1162,-3,-27
1163,-16,-26
1164,-15,-20
1165,-9,-19
1166,-2,-20
1167,0,-18
1168,-2,-13
1169,10,-7
1170,13,1
1171,17,2
1172,24,8
1173,21,9
1174,17,8
1175,21,10
1176,13,10
1177,10,9
1178,17,9
1179,15,7
1180,8,7
1181,4,6
1182,2,7
1183,26,3
1184,5,4
1185,-1,2
1186,2,3
1187,1,-1
1188,3,2
1189,12,4
1190,12,4
1191,12,1
1192,7,2
1193,14,3
1194,12,2
1195,3,0
1196,8,-4
1197,12,3
1198,3,6
1199,2,0
1200,-1,3
1201,4,1
1202,-5,1
1203,3,-2
1204,-3,-2
1205,1,-6
1206,0,-2
1207,-10,-6
1208,-6,-2
1209,-2,-3
1210,-7,-8
1211,-10,-6
1212,-6,-2
1213,-2,-1
1214,-2,-6
1215,-7,-4
1216,-4,-7
1217,-9,-7
1218,-13,0
1219,10,-4
1220,-4,-6
1221,-14,-6
1222,-18,0
1223,-4,-12
1224,0,-6
1225,-12,-3
1226,-4,-4
1227,-8,-3
1228,2,-6
1229,6,1
1230,9,9
1231,12,7
1232,21,3
1233,26,6
1234,15,6
1235,7,3
1236,-4,9
1237,-3,3
1238,1,2
1239,5,4
1240,-2,1
1241,-6,-3
1242,-18,-8
1243,-19,-15
1244,-13,-19
1245,-16,-18
1246,-23,-15
1247,-14,-16
1248,-19,-15
1249,-23,-18
1250,-16,-13
1251,-1,-13
1252,-8,-6
1253,-19,-3
1254,-18,-28
1255,52,-2
1256,124,101
1257,230,191
1258,250,341
1259,92,280
1260,-12,126
1261,-6,34
1262,-7,12
1263,-17,-2
1264,-18,-13
1265,-20,-19
1266,-24,-21
1267,-27,-25
1268,-29,-28
1269,-28,-26
1270,-34,-30
1271,-31,-34
1272,-34,-33
1273,-35,-34
1274,-30,-36
1275,-34,-38
1276,-27,-37
1277,-37,-42
1278,-36,-36
1279,-31,-42
