,0,1
0,-12,2
1,-8,4
2,-20,1
3,1,1
4,-4,1
5,-11,2
6,-12,16
7,-5,16
8,-5,4
9,0,2
10,-5,1
11,1,0
12,-2,0
13,-20,4
14,-19,2
15,-17,13
16,-15,9
17,-19,4
18,-15,0
19,-27,-9
20,-6,-4
21,-16,1
22,-19,-2
23,-16,-6
24,-13,-2
25,-12,-4
26,-19,-4
27,-13,-5
28,-12,2
29,-8,2
30,-4,10
31,19,8
32,11,6
33,-6,1
34,-12,1
35,-6,2
36,-19,5
37,-28,6
38,-28,-5
39,-31,-9
40,-28,-5
41,-28,1
42,-17,-23
43,-38,-17
44,-30,4
45,-24,-4
46,-22,-17
47,-34,-16
48,-30,-16
49,-28,-17
50,-33,-5
51,-22,5
52,24,-2
53,129,6
54,249,51
55,151,150
56,-11,138
57,-60,55
58,-59,1
59,-41,-21
60,-33,-14
61,-23,-9
62,-27,-10
63,-30,-9
64,-19,-2
65,-23,4
66,-11,-6
67,-9,-12
68,-24,8
69,-16,5
70,-6,-1
71,-12,2
72,-6,6
73,-6,1
74,0,2
75,4,6
76,15,14
77,16,13
78,22,8
79,23,20
80,42,24
81,41,29
82,48,29
83,49,28
84,48,27
85,45,33
86,52,32
87,38,25
88,31,27
89,30,25
90,13,16
91,8,10
92,0,5
93,5,5
94,-8,5
95,-13,-1
96,-34,-5
97,-20,-10
98,-28,0
99,-22,-6
100,-26,-13
101,-23,-9
102,-17,-5
103,-9,-4
104,-13,2
105,-15,2
106,-11,-4
107,-11,-5
108,-8,0
109,-11,-10
110,-17,1
111,-13,16
112,-4,2
113,-8,-2
114,-17,-1
115,-20,-2
116,-16,2
117,-24,4
118,-22,-2
119,-19,-14
120,-12,-20
121,-22,-8
122,-24,4
123,-34,-1
124,-20,-12
125,-23,-13
126,-12,-10
127,-11,4
128,-5,-2
129,0,-12
130,-4,-12
131,-6,-1
132,4,0
133,1,8
134,-5,17
135,0,2
136,-15,-1
137,-30,1
138,-22,-20
139,-35,-17
140,-28,-8
141,-28,-16
142,-23,-24
143,-23,-8
144,-33,-12
145,-37,-20
146,-41,-14
147,-38,1
148,-30,-10
149,-23,-24
150,-27,24
151,-11,1
152,63,-16
153,160,5
154,213,62
155,62,127
156,-60,73
157,-64,17
158,-48,-8
159,-26,-28
160,-26,-35
161,-26,-24
162,-24,-4
163,-11,-1
164,-17,-5
165,-17,-10
166,-27,2
167,-6,13
168,-16,-6
169,-12,-19
170,-11,-12
171,-9,0
172,1,9
173,8,8
174,2,8
175,9,1
176,12,6
177,22,5
178,24,13
179,35,17
180,44,20
181,56,24
182,53,31
183,62,29
184,62,32
185,60,33
186,52,32
187,44,35
188,38,35
189,31,19
190,13,8
191,11,21
192,-5,20
193,4,-5
194,-11,8
195,-15,4
196,-20,-4
197,-13,-5
198,-17,-8
199,-26,2
200,-24,9
201,-20,0
202,-19,-4
203,-16,-13
204,-12,-13
205,-9,-10
206,-13,-5
207,-9,-4
208,-13,1
209,0,2
210,6,2
211,-11,6
212,-20,8
213,-19,8
214,-12,13
215,-11,-1
216,-13,-8
217,-13,-5
218,-20,2
219,-11,-6
220,-16,-2
221,-11,5
222,-19,-5
223,-17,-4
224,-17,-1
225,-9,-6
226,-15,-5
227,-20,-5
228,-19,-4
229,-12,-2
230,-17,-4
231,-15,-2
232,-15,6
233,-4,4
234,-6,-1
235,6,2
236,1,2
237,8,5
238,5,2
239,0,4
240,1,5
241,0,6
242,-2,5
243,-11,2
244,-35,4
245,-26,0
246,-30,16
247,-22,6
248,-31,-13
249,-24,-12
250,-30,-10
251,-23,-9
252,-24,-6
253,-23,-6
254,-17,-6
255,-19,-6
256,-22,8
257,-1,1
258,63,5
259,173,9
260,128,69
261,1,88
262,-73,13
263,-77,-16
264,-55,-21
265,-30,-24
266,-24,-12
267,-19,-4
268,-17,-4
269,-15,-2
270,-13,-2
271,-16,1
272,-8,0
273,-11,6
274,-5,16
275,-9,8
276,-1,-2
277,-2,0
278,5,1
279,2,2
280,8,4
281,12,8
282,16,8
283,22,10
284,28,14
285,35,19
286,41,16
287,51,21
288,46,24
289,63,27
290,57,25
291,64,25
292,57,24
293,52,24
294,41,24
295,42,25
296,30,17
297,20,5
298,15,2
299,1,5
300,1,4
301,-5,1
302,-2,-1
303,-11,-2
304,-8,0
305,-13,-1
306,-4,-1
307,-8,-2
308,-5,-2
309,-6,-1
310,-6,1
311,-4,-1
312,0,1
313,1,6
314,-1,5
315,1,2
316,-5,5
317,4,5
318,-4,5
319,1,6
320,-5,6
321,-8,6
322,-11,6
323,-6,14
324,-9,9
325,-9,-4
326,-13,-4
327,-20,2
328,-11,-4
329,-12,-1
330,-15,-1
331,-22,-1
332,-16,9
333,-24,10
334,-11,14
335,-12,-1
336,-6,-16
337,-5,-12
338,-4,-4
339,6,2
340,4,5
341,8,4
342,-4,4
343,-1,16
344,-9,10
345,-9,0
346,-22,4
347,-23,5
348,-26,0
349,-30,-8
350,-26,-8
351,-28,-2
352,-27,-12
353,-28,-12
354,-27,-19
355,-31,-14
356,-22,-13
357,-20,-12
358,-15,-10
359,-24,-4
360,-15,-5
361,40,-6
362,147,-1
363,184,33
364,73,100
365,-35,35
366,-71,12
367,-67,-8
368,-34,-20
369,-23,-17
370,-19,-10
371,-17,-8
372,-16,-2
373,-11,2
374,-11,6
375,-11,6
376,-8,0
377,-4,-6
378,-8,-4
379,5,-4
380,0,-4
381,11,-5
382,6,-1
383,11,0
384,15,5
385,22,8
386,26,8
387,28,10
388,38,14
389,38,20
390,52,23
391,51,17
392,59,23
393,55,23
394,57,14
395,49,19
396,52,13
397,44,13
398,37,8
399,28,5
400,19,4
401,15,1
402,5,-1
403,4,-5
404,-2,-8
405,-4,-9
406,-9,-6
407,-2,-12
408,-5,-5
409,-1,-10
410,-4,-9
411,-6,-12
412,-6,9
413,4,28
414,5,0
415,4,-19
416,4,-17
417,2,-12
418,2,-8
419,6,-5
420,1,-4
421,1,-2
422,0,-6
423,-4,-2
424,-2,-2
425,-2,-5
426,-6,-1
427,-6,17
428,-2,6
429,-9,-17
430,-2,-20
431,-9,-6
432,-5,-8
433,-11,-19
434,-5,-14
435,-8,-12
436,2,-9
437,2,-5
438,8,-4
439,11,-2
440,9,2
441,11,2
442,5,0
443,6,-2
444,-4,2
445,-5,-1
446,-20,-6
447,-12,-6
448,-17,6
449,-17,-14
450,-19,-23
451,-19,-17
452,-20,-19
453,-16,-21
454,-15,-17
455,-16,-19
456,-12,-19
457,-6,-14
458,-9,-13
459,-12,4
460,35,9
461,121,12
462,235,25
463,155,87
464,31,93
465,-42,27
466,-51,-9
467,-34,-29
468,-13,-29
469,-8,-20
470,-2,-14
471,-2,-13
472,-1,-9
473,2,-14
474,1,-9
475,4,-12
476,9,-6
477,11,4
478,13,0
479,15,-12
480,17,-6
481,23,-4
482,27,-1
483,33,2
484,37,1
485,41,8
486,48,28
487,59,24
488,62,9
489,78,40
490,81,20
491,85,2
492,85,25
493,91,53
494,82,35
495,78,20
496,75,33
497,66,27
498,64,5
499,49,-5
500,49,20
501,34,-8
502,30,-12
503,28,10
504,37,-20
505,27,-27
506,28,-25
507,26,-20
508,27,-16
509,30,-13
510,34,-13
511,35,-10
512,35,-10
513,41,-8
514,38,-5
515,49,-2
516,42,-4
517,49,-4
518,45,-6
519,44,-4
520,42,-4
521,48,-4
522,45,-4
523,46,-4
524,45,-2
525,40,-4
526,48,-5
527,44,-5
528,49,-6
529,44,-8
530,46,-4
531,42,-5
532,51,-8
533,45,-9
534,49,-9
535,52,-10
536,51,-6
537,63,-5
538,64,-4
539,71,-1
540,66,1
541,74,1
542,59,1
543,67,0
544,59,6
545,52,10
546,42,9
547,45,14
548,46,0
549,46,-23
550,42,-33
551,44,-32
552,46,-24
553,45,-19
554,51,-20
555,51,-16
556,51,-16
557,57,-16
558,57,-14
559,52,0
560,95,-8
561,168,-2
562,271,21
563,235,72
564,96,91
565,27,24
566,22,-12
567,46,-28
568,64,-27
569,73,-12
570,81,-12
571,75,-8
572,84,13
573,82,21
574,89,13
575,96,21
576,104,-9
577,97,-9
578,100,-16
579,102,-10
580,104,16
581,110,36
582,120,40
583,126,16
584,129,-12
585,139,-12
586,143,-4
587,160,4
588,162,14
589,173,20
590,180,20
591,186,40
592,195,36
593,195,33
594,194,44
595,190,55
596,186,32
597,176,23
598,171,21
599,161,24
600,153,24
601,146,23
602,135,29
603,133,17
604,135,6
605,132,10
606,131,6
607,132,12
608,133,10
609,137,1
610,137,10
611,137,-1
612,144,24
613,151,6
614,157,-6
615,158,0
616,161,5
617,165,6
618,158,14
619,166,17
620,166,19
621,169,17
622,166,19
623,171,19
624,161,20
625,175,19
626,162,14
627,166,16
628,162,10
629,162,12
630,165,13
631,165,13
632,164,12
633,164,13
634,164,16
635,164,16
636,176,12
637,175,9
638,182,16
639,184,16
640,186,21
641,187,17
642,186,19
643,194,17
644,187,17
645,178,19
646,168,13
647,157,12
648,153,9
649,149,10
650,140,0
651,198,4
652,227,-5
653,189,-4
654,124,-2
655,129,1
656,142,5
657,155,5
658,161,9
659,162,12
660,205,8
661,282,12
662,396,33
663,325,107
664,200,116
665,120,38
666,128,4
667,151,-13
668,172,-16
669,179,-5
670,182,0
671,187,2
672,184,4
673,194,1
674,187,8
675,195,5
676,193,8
677,190,6
678,197,4
679,171,10
680,336,9
681,-142,12
682,-376,12
683,-416,17
684,-437,17
685,-448,20
686,-455,21
687,-466,25
688,-476,31
689,-485,29
690,-494,38
691,-505,44
692,-507,54
693,-518,61
694,-525,59
695,-539,46
696,-543,38
697,-563,47
698,-560,16
699,-576,10
700,-582,9
701,-598,1
702,-605,10
703,-619,21
704,-623,24
705,-637,-8
706,-645,-42
707,-658,-40
708,-672,-35
709,-680,-59
710,-687,-43
711,-698,-54
712,-709,-72
713,-718,-73
714,-731,-54
715,-731,-54
716,-749,-66
717,-746,-31
718,-797,-21
719,-738,-28
720,-478,-58
721,-298,-78
722,-218,-72
723,-259,-63
724,-285,-53
725,-264,-46
726,-249,-53
727,-227,-57
728,-77,-51
729,-81,-33
730,-184,-35
731,-143,-44
732,-75,-47
733,-53,-33
734,-86,-33
735,-63,-28
736,-162,0
737,-129,-16
738,-80,-32
739,-51,-31
740,-64,-32
741,-74,-36
742,-80,-32
743,-125,-35
744,-57,-51
745,-118,-53
746,-82,-47
747,-44,-39
748,-62,-25
749,-64,-40
750,-60,-47
751,-52,-39
752,-63,-43
753,-49,-44
754,-71,-31
755,-63,-35
756,-80,-36
757,-64,-27
758,-35,10
759,-60,70
760,-62,21
761,-125,-33
762,-91,-62
763,-59,-67
764,-46,-53
765,-33,-44
766,-70,-31
767,-46,-31
768,-74,-36
769,-40,-32
770,-56,-33
771,-49,-35
772,-97,-32
773,-28,-27
774,-46,-32
775,-56,-29
776,-35,-24
777,-64,-25
778,-62,-25
779,-52,-19
780,-42,-17
781,-31,-14
782,-64,-14
783,-41,-8
784,-52,-1
785,-59,2
786,-24,0
787,-41,27
788,-52,19
789,-27,8
790,-51,8
791,-60,-1
792,-67,-9
793,-48,-9
794,-48,-2
795,-53,-20
796,-44,-10
797,-48,-16
798,-57,-16
799,-82,-23
800,-44,-32
801,-91,-24
802,-70,-25
803,-51,-24
804,-45,-31
805,-41,-36
806,-41,-33
807,-35,-31
808,-48,-29
809,-33,-28
810,-62,-27
811,-44,-24
812,-66,-16
813,-19,-20
814,-42,-17
815,-44,-20
816,-38,-5
817,-41,-21
818,-41,-23
819,-40,-21
820,-30,-24
821,-34,-29
822,-24,-27
823,-30,-25
824,-62,-28
825,-41,-23
826,-5,-25
827,5,-33
828,-41,-32
829,-31,-27
830,0,-14
831,-40,-20
832,-37,-13
833,-1,-8
834,-8,-10
835,-57,-20
836,-45,-10
837,-15,-8
838,-31,-9
839,-16,-20
840,-19,-29
841,-30,-35
842,-31,-24
843,13,-25
844,-41,-21
845,-12,-24
846,-26,-25
847,-9,-27
848,24,-32
849,24,-17
850,33,-9
851,-23,-14
852,-11,-16
853,45,-31
854,19,-29
855,28,6
856,73,59
857,22,122
858,0,53
859,-6,1
860,-31,-23
861,-8,-40
862,15,-40
863,-49,-35
864,13,-33
865,15,-32
866,22,-25
867,22,-17
868,-12,-17
869,-2,-10
870,-19,-20
871,-23,-13
872,-33,-12
873,48,-20
874,17,-16
875,1,-12
876,46,-9
877,34,-8
878,-15,-1
879,-40,8
880,-16,13
881,-4,6
882,-13,4
883,15,5
884,31,8
885,11,16
886,8,20
887,-1,13
888,-1,5
889,33,2
890,35,0
891,-2,-2
892,-8,-4
893,40,-6
894,70,-20
895,63,-13
896,13,-8
897,27,-23
898,71,-24
899,46,-21
900,12,-17
901,78,-19
902,-42,-23
903,15,-17
904,-40,-27
905,-51,-24
906,-12,-13
907,19,-24
908,-12,-23
909,-1,-21
910,28,-21
911,-34,-20
912,-15,-28
913,4,-12
914,26,-14
915,30,-23
916,-20,-23
917,2,-23
918,-64,-24
919,-24,-32
920,24,-29
921,28,-14
922,17,-24
923,-20,-20
924,-24,-20
925,5,-27
926,24,-33
927,35,-16
928,8,-14
929,56,-16
930,20,-13
931,-33,-12
932,8,-8
933,38,-14
934,-37,-17
935,6,-10
936,40,-23
937,55,-16
938,45,-19
939,95,-19
940,-15,-33
941,6,-20
942,-11,-39
943,-8,-28
944,0,-33
945,9,-29
946,-4,-43
947,-19,-35
948,-1,-31
949,44,-24
950,44,-29
951,31,-23
952,52,1
953,60,53
954,55,121
955,33,43
956,53,-20
957,31,-47
958,-5,-53
959,42,-48
960,51,-47
961,26,-27
962,63,-27
963,-1,-33
964,41,-32
965,44,-31
966,57,-27
967,57,-14
968,0,-8
969,12,-10
970,49,-27
971,45,-25
972,44,-16
973,46,-14
974,55,-8
975,24,2
976,13,2
977,44,-5
978,51,-2
979,41,0
980,22,2
981,45,6
982,52,6
983,13,14
984,1,21
985,19,9
986,28,-2
987,35,-8
988,53,-6
989,52,4
990,49,-4
991,59,-21
992,53,-17
993,42,-20
994,42,-12
995,46,-24
996,68,-27
997,26,-17
998,-2,-19
999,22,-25
1000,35,-24
1001,31,-21
1002,0,-28
1003,35,-32
1004,38,-29
1005,20,-19
1006,53,-19
1007,41,-17
1008,44,-12
1009,9,-13
1010,26,-14
1011,26,-24
1012,33,-23
1013,35,-16
1014,28,-31
1015,44,-17
1016,52,-17
1017,49,-12
1018,44,-31
1019,35,-25
1020,2,-20
1021,28,-31
1022,62,-39
1023,-48,-21
1024,-1,-27
1025,30,-24
1026,67,-35
1027,13,-25
1028,24,-14
1029,59,-20
1030,34,-25
1031,-13,-13
1032,-38,-10
1033,-71,-19
1034,-22,-25
1035,-30,-21
1036,-42,-12
1037,11,-10
1038,22,-32
1039,28,-27
1040,19,1
1041,11,-14
1042,35,-27
1043,40,-20
1044,33,-25
1045,35,-21
1046,20,-29
1047,30,-24
1048,51,-24
1049,33,-23
1050,-6,-32
1051,-5,-38
1052,-86,-23
1053,-55,-17
1054,9,-8
1055,35,-28
1056,56,-28
1057,37,0
1058,12,66
1059,-30,40
1060,-30,-19
1061,-26,-50
1062,48,-61
1063,-27,-32
1064,-35,-16
1065,9,-24
1066,37,-25
1067,38,-19
1068,9,-21
1069,44,-24
1070,-15,-20
1071,41,-14
1072,44,-17
1073,45,-14
1074,37,-17
1075,20,-10
1076,16,2
1077,38,-12
1078,49,-5
1079,8,-1
1080,20,-2
1081,24,-2
1082,45,-5
1083,48,-2
1084,34,-6
1085,-38,10
1086,-44,8
1087,-37,13
1088,-17,9
1089,-4,6
1090,24,5
1091,17,5
1092,-4,0
1093,9,-5
1094,34,-9
1095,0,-2
1096,-37,-1
1097,-6,-8
1098,23,-14
1099,35,-23
1100,53,-17
1101,28,-17
1102,20,-17
1103,22,-24
1104,-40,-19
1105,-15,-19
1106,-35,-21
1107,-22,-14
1108,19,-13
1109,0,-21
1110,-9,-17
1111,22,-17
1112,-12,0
1113,30,-2
1114,44,-6
1115,17,-8
1116,30,-8
1117,23,-6
1118,6,-8
1119,6,-8
1120,-5,-16
1121,2,-20
1122,22,-20
1123,33,-14
1124,38,-9
1125,24,-9
1126,31,-9
1127,35,-8
1128,44,-12
1129,19,-13
1130,33,-6
1131,8,-5
1132,-5,-4
1133,-22,-13
1134,2,-10
1135,28,0
1136,45,6
1137,30,-5
1138,44,14
1139,45,21
1140,34,1
1141,40,-10
1142,48,-19
1143,42,-9
1144,28,-10
1145,-11,0
1146,22,-8
1147,66,-20
1148,0,-8
1149,-6,-20
1150,33,-14
1151,27,-24
1152,34,-24
1153,16,-25
1154,35,-29
1155,-11,-19
1156,-4,2
1157,-64,-5
1158,-34,-8
1159,4,19
1160,-34,84
1161,-38,42
1162,-64,1
1163,-51,-35
1164,-8,-42
1165,23,-35
1166,28,-29
1167,-13,-20
1168,16,-8
1169,23,-10
1170,15,-14
1171,-11,-9
1172,-9,-2
1173,24,-12
1174,41,-14
1175,56,0
1176,49,8
1177,53,0
1178,-2,10
1179,12,13
1180,16,6
1181,6,2
1182,15,-2
1183,38,-6
1184,46,6
1185,57,14
1186,57,17
1187,34,12
1188,-8,9
1189,2,8
1190,22,21
1191,64,16
1192,74,14
1193,2,31
1194,-15,39
1195,33,20
1196,-16,10
1197,-63,1
1198,-12,-10
1199,13,-14
1200,59,-20
1201,28,-14
1202,40,2
1203,45,1
1204,5,6
1205,-20,-8
1206,26,-19
1207,-28,1
1208,-33,-8
1209,-23,-13
1210,-2,-19
1211,37,-29
1212,45,0
1213,17,5
1214,6,4
1215,52,-4
1216,-2,-8
1217,-30,6
1218,6,0
1219,46,0
1220,11,-6
1221,2,4
1222,24,6
1223,41,-10
1224,5,-12
1225,-22,0
1226,-26,0
1227,0,-5
1228,-24,-21
1229,-46,-28
1230,-4,-23
1231,33,-28
1232,38,-8
1233,40,-6
1234,63,0
1235,57,13
1236,-22,6
1237,31,6
1238,40,-5
1239,38,-2
1240,37,2
1241,45,-6
1242,51,-13
1243,63,-12
1244,-5,-14
1245,-33,-9
1246,42,-13
1247,22,-6
1248,-30,-2
1249,13,-17
1250,6,-32
1251,48,-14
1252,1,-5
1253,-24,-23
1254,38,-29
1255,33,-20
1256,44,-13
1257,46,8
1258,16,74
1259,-11,112
1260,37,39
1261,5,-19
1262,13,-32
1263,-40,-27
1264,1,-21
1265,16,-23
1266,-9,-19
1267,-31,-9
1268,-45,-14
1269,-12,-20
1270,-5,-14
1271,28,-16
1272,11,-17
1273,0,-9
1274,5,-4
1275,-24,-8
1276,-40,5
1277,-91,4
1278,-20,0
1279,-70,1
