,0,1
0,-26,-13
1,-28,-16
2,-24,-16
3,-28,-14
4,-26,-14
5,-25,-17
6,-28,-17
7,-29,-17
8,-32,-19
9,-29,-21
10,-33,-18
11,-28,-18
12,-29,-21
13,-28,-22
14,-28,-21
15,-32,-22
16,-29,-22
17,-36,-21
18,-22,-23
19,-32,-19
20,-26,-22
21,-29,-22
22,-30,-24
23,-29,-19
24,-30,-19
25,-28,-23
26,-29,-22
27,-30,-22
28,-32,-21
29,-32,-24
30,-33,-21
31,-29,-21
32,-30,-19
33,-32,-22
34,-30,-21
35,-30,-21
36,-30,-21
37,-34,-19
38,-26,-22
39,-29,-16
40,-29,-19
41,-30,-19
42,-33,-21
43,-29,-18
44,-36,-16
45,-26,-19
46,-29,-17
47,-32,-17
48,-30,-17
49,-36,-18
50,-34,-19
51,-36,-16
52,-34,-22
53,-37,-27
54,-18,-16
55,-6,-1
56,-13,-1
57,-21,-4
58,-33,-13
59,-38,-18
60,-41,-21
61,-42,-23
62,-42,-24
63,-45,-24
64,-45,-23
65,-48,-23
66,-41,-23
67,-37,-22
68,-37,-22
69,-41,-26
70,-64,-17
71,-81,-7
72,-24,11
73,122,79
74,337,198
75,453,221
76,384,89
77,130,-11
78,36,-55
79,10,-31
80,-10,-13
81,-22,-17
82,-29,-16
83,-34,-14
84,-34,-16
85,-40,-17
86,-37,-17
87,-37,-13
88,-36,-13
89,-29,-16
90,-29,-12
91,-25,-12
92,-24,-9
93,-20,-12
94,-18,-8
95,-16,-3
96,-6,-3
97,-1,-1
98,4,3
99,14,7
100,21,11
101,30,14
102,42,23
103,52,31
104,73,34
105,80,38
106,89,45
107,101,48
108,106,52
109,116,52
110,117,57
111,116,57
112,106,50
113,86,45
114,65,36
115,45,27
116,26,14
117,9,7
118,-4,-1
119,-8,-7
120,-16,-12
121,-21,-16
122,-21,-18
123,-22,-18
124,-21,-19
125,-26,-17
126,-22,-17
127,-16,-17
128,-22,-19
129,-18,-17
130,-18,-16
131,-21,-18
132,-18,-14
133,-24,-13
134,-17,-16
135,-16,-12
136,-22,-13
137,-21,-14
138,-22,-13
139,-24,-14
140,-22,-13
141,-26,-16
142,-24,-16
143,-22,-16
144,-26,-16
145,-24,-16
146,-26,-18
147,-24,-17
148,-28,-14
149,-26,-18
150,-24,-17
151,-24,-16
152,-26,-18
153,-25,-16
154,-26,-21
155,-22,-17
156,-28,-14
157,-26,-19
158,-21,-17
159,-26,-14
160,-25,-19
161,-29,-16
162,-25,-18
163,-26,-16
164,-32,-14
165,-25,-17
166,-22,-17
167,-29,-14
168,-25,-16
169,-28,-14
170,-29,-18
171,-28,-16
172,-30,-13
173,-28,-16
174,-25,-16
175,-28,-16
176,-29,-16
177,-30,-16
178,-29,-17
179,-30,-14
180,-33,-14
181,-29,-17
182,-30,-17
183,-30,-17
184,-37,-22
185,-29,-23
186,-12,-8
187,-9,3
188,-16,1
189,-22,-7
190,-32,-16
191,-40,-19
192,-40,-22
193,-42,-23
194,-41,-23
195,-45,-19
196,-42,-22
197,-37,-23
198,-41,-22
199,-36,-19
200,-40,-18
201,-54,-23
202,-84,-6
203,-49,2
204,58,53
205,278,170
206,420,255
207,458,162
208,197,37
209,53,-47
210,18,-31
211,-4,-6
212,-16,-8
213,-29,-8
214,-33,-12
215,-36,-9
216,-41,-12
217,-41,-16
218,-38,-9
219,-41,-9
220,-32,-9
221,-33,-9
222,-30,-8
223,-25,-6
224,-26,-6
225,-20,-3
226,-18,0
227,-10,6
228,-2,7
229,1,11
230,9,17
231,16,22
232,28,27
233,36,34
234,50,40
235,65,49
236,76,54
237,89,59
238,100,67
239,110,68
240,117,72
241,118,75
242,124,74
243,116,74
244,98,64
245,80,53
246,56,43
247,34,29
248,13,22
249,-1,8
250,-4,2
251,-17,-2
252,-20,-7
253,-24,-11
254,-25,-13
255,-22,-13
256,-28,-12
257,-22,-14
258,-21,-11
259,-25,-12
260,-21,-12
261,-25,-11
262,-21,-11
263,-25,-6
264,-22,-8
265,-20,-9
266,-22,-8
267,-21,-7
268,-22,-8
269,-22,-9
270,-25,-9
271,-25,-7
272,-21,-11
273,-22,-12
274,-25,-13
275,-25,-13
276,-26,-14
277,-26,-13
278,-28,-12
279,-24,-14
280,-24,-14
281,-28,-17
282,-26,-16
283,-28,-16
284,-26,-16
285,-30,-16
286,-25,-16
287,-25,-14
288,-26,-16
289,-25,-16
290,-28,-17
291,-24,-16
292,-29,-14
293,-24,-17
294,-22,-14
295,-26,-16
296,-22,-14
297,-26,-17
298,-24,-16
299,-28,-11
300,-26,-16
301,-18,-14
302,-26,-13
303,-22,-16
304,-26,-13
305,-24,-16
306,-26,-12
307,-25,-13
308,-22,-13
309,-28,-13
310,-25,-13
311,-26,-12
312,-28,-12
313,-33,-13
314,-29,-17
315,-28,-14
316,-29,-16
317,-36,-26
318,-21,-18
319,-5,2
320,-12,3
321,-9,1
322,-22,-6
323,-36,-16
324,-40,-19
325,-40,-23
326,-38,-19
327,-45,-19
328,-36,-22
329,-38,-22
330,-40,-24
331,-37,-18
332,-37,-21
333,-37,-19
334,-57,-18
335,-70,-8
336,-41,7
337,77,64
338,261,168
339,416,240
340,404,168
341,214,36
342,65,-38
343,21,-34
344,0,-12
345,-18,-11
346,-26,-11
347,-37,-8
348,-37,-11
349,-38,-12
350,-38,-12
351,-38,-9
352,-40,-12
353,-36,-11
354,-36,-8
355,-28,-7
356,-29,-7
357,-25,-6
358,-22,-2
359,-16,1
360,-13,4
361,-8,6
362,6,11
363,8,17
364,18,18
365,24,26
366,37,29
367,46,39
368,60,45
369,76,49
370,84,55
371,100,59
372,105,63
373,114,63
374,116,69
375,122,68
376,112,67
377,93,59
378,74,49
379,52,39
380,30,29
381,8,17
382,1,6
383,-14,0
384,-18,-7
385,-28,-12
386,-30,-16
387,-33,-16
388,-30,-16
389,-30,-18
390,-30,-17
391,-29,-16
392,-29,-16
393,-28,-17
394,-28,-16
395,-22,-13
396,-26,-13
397,-26,-13
398,-26,-13
399,-26,-13
400,-29,-11
401,-26,-13
402,-25,-13
403,-26,-14
404,-28,-14
405,-30,-18
406,-33,-17
407,-30,-16
408,-28,-19
409,-30,-21
410,-32,-19
411,-33,-18
412,-33,-21
413,-34,-21
414,-28,-22
415,-32,-19
416,-30,-23
417,-30,-21
418,-33,-24
419,-33,-18
420,-38,-22
421,-29,-23
422,-33,-22
423,-30,-22
424,-37,-21
425,-30,-23
426,-38,-21
427,-30,-22
428,-30,-19
429,-36,-23
430,-33,-21
431,-34,-21
432,-33,-19
433,-37,-19
434,-32,-19
435,-34,-18
436,-34,-19
437,-36,-19
438,-36,-19
439,-40,-17
440,-37,-18
441,-36,-19
442,-40,-24
443,-36,-24
444,-18,-11
445,-14,-1
446,-14,1
447,-18,-3
448,-34,-13
449,-38,-22
450,-44,-21
451,-42,-26
452,-45,-21
453,-45,-26
454,-38,-24
455,-46,-23
456,-44,-26
457,-46,-24
458,-38,-26
459,-48,-21
460,-65,-19
461,-81,-7
462,-21,11
463,121,77
464,322,182
465,445,208
466,398,110
467,149,0
468,40,-48
469,6,-36
470,-9,-17
471,-26,-16
472,-33,-14
473,-40,-14
474,-37,-16
475,-40,-16
476,-41,-16
477,-38,-17
478,-38,-17
479,-36,-12
480,-36,-13
481,-26,-13
482,-26,-11
483,-22,-11
484,-22,-8
485,-13,-8
486,-10,-1
487,-6,1
488,6,2
489,10,7
490,20,11
491,29,18
492,38,21
493,50,28
494,60,34
495,81,43
496,86,47
497,100,48
498,108,53
499,112,53
500,114,59
501,105,57
502,102,53
503,78,48
504,57,36
505,36,26
506,16,16
507,2,7
508,-12,1
509,-17,-7
510,-21,-11
511,-28,-14
512,-28,-16
513,-30,-18
514,-29,-16
515,-29,-16
516,-28,-16
517,-26,-17
518,-26,-16
519,-25,-14
520,-25,-14
521,-26,-14
522,-28,-12
523,-24,-12
524,-25,-11
525,-28,-13
526,-26,-12
527,-29,-12
528,-26,-13
529,-33,-12
530,-26,-13
531,-26,-12
532,-32,-14
533,-29,-17
534,-32,-16
535,-29,-16
536,-36,-13
537,-33,-18
538,-26,-16
539,-33,-14
540,-30,-17
541,-32,-17
542,-33,-19
543,-33,-14
544,-38,-14
545,-29,-19
546,-36,-17
547,-34,-17
548,-36,-16
549,-37,-18
550,-34,-16
551,-37,-16
552,-32,-17
553,-34,-17
554,-34,-16
555,-36,-16
556,-37,-16
557,-37,-17
558,-37,-13
559,-34,-16
560,-34,-16
561,-36,-17
562,-37,-16
563,-38,-18
564,-37,-18
565,-41,-19
566,-38,-21
567,-33,-24
568,-20,-9
569,-10,2
570,-13,2
571,-21,-2
572,-37,-9
573,-42,-19
574,-42,-22
575,-46,-22
576,-45,-23
577,-49,-26
578,-48,-27
579,-48,-23
580,-49,-23
581,-42,-23
582,-44,-22
583,-42,-21
584,-62,-22
585,-92,-11
586,-45,1
587,60,55
588,297,177
589,437,253
590,438,149
591,166,27
592,36,-49
593,8,-32
594,-12,-8
595,-26,-11
596,-32,-12
597,-40,-16
598,-41,-14
599,-45,-14
600,-44,-14
601,-44,-13
602,-41,-13
603,-37,-11
604,-36,-9
605,-34,-11
606,-29,-8
607,-26,-6
608,-26,-2
609,-21,-1
610,-10,1
611,-6,7
612,-2,9
613,6,13
614,14,18
615,25,26
616,33,33
617,50,37
618,61,45
619,72,52
620,85,57
621,94,59
622,106,63
623,110,70
624,117,69
625,120,70
626,102,67
627,88,60
628,64,50
629,44,36
630,22,28
631,5,18
632,-4,7
633,-16,1
634,-21,-6
635,-25,-7
636,-28,-12
637,-28,-14
638,-29,-13
639,-24,-14
640,-25,-13
641,-26,-14
642,-25,-13
643,-25,-13
644,-24,-11
645,-25,-9
646,-22,-9
647,-22,-8
648,-24,-9
649,-25,-9
650,-25,-9
651,-24,-9
652,-28,-7
653,-25,-11
654,-21,-11
655,-28,-12
656,-26,-13
657,-28,-16
658,-26,-16
659,-32,-12
660,-30,-16
661,-26,-16
662,-30,-16
663,-28,-14
664,-32,-17
665,-30,-18
666,-30,-16
667,-33,-16
668,-29,-17
669,-33,-17
670,-32,-17
671,-32,-14
672,-34,-18
673,-32,-17
674,-33,-16
675,-29,-16
676,-30,-17
677,-32,-17
678,-32,-17
679,-30,-17
680,-34,-16
681,-33,-16
682,-30,-16
683,-32,-16
684,-33,-16
685,-34,-16
686,-36,-18
687,-36,-12
688,-41,-14
689,-32,-17
690,-38,-17
691,-36,-18
692,-42,-24
693,-26,-21
694,-9,2
695,-14,7
696,-13,2
697,-30,-6
698,-41,-18
699,-46,-21
700,-49,-22
701,-48,-23
702,-50,-22
703,-48,-23
704,-48,-23
705,-49,-24
706,-48,-23
707,-45,-23
708,-46,-19
709,-56,-24
710,-78,-13
711,-72,-6
712,2,27
713,194,124
714,370,237
715,476,218
716,268,72
717,72,-38
718,14,-50
719,-4,-18
720,-22,-11
721,-34,-16
722,-41,-13
723,-46,-11
724,-45,-14
725,-45,-14
726,-46,-14
727,-45,-14
728,-44,-13
729,-41,-12
730,-38,-9
731,-32,-8
732,-32,-6
733,-28,-6
734,-24,-2
735,-20,0
736,-14,6
737,-6,7
738,6,13
739,9,18
740,22,22
741,28,27
742,44,32
743,52,43
744,70,47
745,85,50
746,92,54
747,104,60
748,108,60
749,116,62
750,113,64
751,109,62
752,93,55
753,76,47
754,53,38
755,36,27
756,16,19
757,-1,8
758,-6,0
759,-17,-6
760,-21,-9
761,-28,-13
762,-25,-17
763,-28,-12
764,-28,-16
765,-22,-16
766,-25,-17
767,-24,-14
768,-28,-13
769,-26,-16
770,-24,-12
771,-28,-9
772,-17,-11
773,-24,-11
774,-24,-11
775,-25,-12
776,-24,-12
777,-26,-11
778,-25,-13
779,-21,-12
780,-28,-13
781,-25,-16
782,-29,-16
783,-29,-16
784,-33,-16
785,-29,-18
786,-26,-17
787,-30,-17
788,-30,-19
789,-32,-21
790,-33,-19
791,-34,-18
792,-29,-17
793,-36,-19
794,-30,-18
795,-38,-18
796,-36,-21
797,-38,-18
798,-37,-18
799,-29,-17
800,-40,-22
801,-33,-21
802,-40,-21
803,-36,-21
804,-40,-17
805,-37,-19
806,-36,-21
807,-38,-18
808,-37,-18
809,-38,-19
810,-38,-19
811,-42,-18
812,-38,-21
813,-40,-23
814,-41,-27
815,-22,-16
816,-10,-2
817,-12,2
818,-20,-2
819,-30,-11
820,-41,-21
821,-44,-24
822,-46,-24
823,-46,-26
824,-50,-24
825,-50,-28
826,-45,-27
827,-49,-26
828,-48,-26
829,-48,-26
830,-41,-24
831,-58,-23
832,-82,-12
833,-69,-3
834,2,29
835,193,108
836,366,222
837,489,211
838,312,73
839,90,-22
840,24,-49
841,-1,-24
842,-18,-14
843,-33,-16
844,-38,-17
845,-44,-16
846,-41,-17
847,-38,-16
848,-44,-16
849,-40,-17
850,-40,-16
851,-37,-13
852,-36,-12
853,-32,-12
854,-26,-9
855,-24,-8
856,-20,-7
857,-16,-6
858,-9,-1
859,-6,2
860,4,7
861,13,9
862,22,14
863,32,23
864,42,26
865,57,32
866,65,42
867,80,45
868,94,50
869,98,53
870,109,57
871,113,62
872,113,58
873,105,59
874,86,54
875,74,44
876,46,37
877,26,22
878,12,14
879,-5,8
880,-14,0
881,-21,-6
882,-21,-8
883,-22,-9
884,-25,-13
885,-25,-13
886,-26,-13
887,-26,-13
888,-26,-12
889,-22,-13
890,-21,-12
891,-22,-11
892,-22,-11
893,-22,-12
894,-24,-9
895,-25,-8
896,-24,-8
897,-20,-9
898,-24,-12
899,-22,-9
900,-26,-12
901,-26,-14
902,-26,-11
903,-30,-11
904,-24,-14
905,-26,-13
906,-29,-16
907,-26,-13
908,-29,-16
909,-26,-17
910,-30,-14
911,-29,-14
912,-26,-16
913,-29,-16
914,-26,-16
915,-28,-16
916,-28,-16
917,-29,-16
918,-30,-17
919,-26,-16
920,-28,-14
921,-29,-16
922,-29,-17
923,-32,-16
924,-29,-16
925,-34,-14
926,-28,-14
927,-28,-12
928,-30,-16
929,-28,-14
930,-30,-14
931,-32,-17
932,-32,-13
933,-34,-13
934,-25,-16
935,-32,-12
936,-32,-13
937,-30,-14
938,-30,-13
939,-33,-12
940,-36,-13
941,-33,-16
942,-32,-17
943,-36,-19
944,-21,-12
945,-9,2
946,-6,7
947,-18,3
948,-28,-7
949,-36,-14
950,-41,-19
951,-41,-19
952,-46,-21
953,-45,-24
954,-44,-22
955,-48,-21
956,-41,-23
957,-41,-21
958,-42,-19
959,-37,-18
960,-58,-23
961,-78,-11
962,-58,3
963,49,54
964,242,160
965,405,243
966,418,176
967,232,40
968,65,-36
969,17,-33
970,-2,-12
971,-16,-9
972,-29,-9
973,-37,-13
974,-38,-13
975,-42,-12
976,-41,-11
977,-45,-11
978,-34,-13
979,-37,-8
980,-37,-11
981,-32,-8
982,-30,-8
983,-25,-4
984,-26,-2
985,-18,0
986,-10,2
987,-9,6
988,0,11
989,2,13
990,16,19
991,22,29
992,33,33
993,52,39
994,58,44
995,74,53
996,82,57
997,96,59
998,104,65
999,112,70
1000,121,69
1001,118,70
1002,112,68
1003,94,62
1004,74,53
1005,53,42
1006,32,32
1007,17,21
1008,1,11
1009,-10,1
1010,-14,-1
1011,-24,-6
1012,-24,-9
1013,-28,-9
1014,-24,-12
1015,-21,-11
1016,-24,-11
1017,-24,-12
1018,-22,-11
1019,-21,-11
1020,-22,-7
1021,-22,-7
1022,-17,-7
1023,-21,-6
1024,-20,-8
1025,-22,-7
1026,-21,-9
1027,-21,-6
1028,-25,-6
1029,-18,-11
1030,-24,-8
1031,-25,-11
1032,-24,-12
1033,-28,-13
1034,-26,-13
1035,-29,-9
1036,-28,-13
1037,-24,-16
1038,-26,-16
1039,-26,-16
1040,-29,-14
1041,-25,-18
1042,-28,-14
1043,-29,-17
1044,-24,-14
1045,-29,-21
1046,-25,-17
1047,-28,-16
1048,-29,-17
1049,-28,-18
1050,-32,-16
1051,-26,-17
1052,-24,-16
1053,-29,-17
1054,-29,-17
1055,-30,-16
1056,-30,-16
1057,-30,-16
1058,-30,-17
1059,-25,-16
1060,-28,-16
1061,-28,-16
1062,-28,-17
1063,-29,-16
1064,-30,-13
1065,-32,-17
1066,-26,-16
1067,-28,-13
1068,-34,-16
1069,-32,-18
1070,-34,-17
1071,-32,-21
1072,-36,-22
1073,-13,-9
1074,0,4
1075,-5,4
1076,-16,-1
1077,-29,-12
1078,-37,-21
1079,-40,-21
1080,-42,-21
1081,-40,-24
1082,-38,-23
1083,-42,-23
1084,-41,-23
1085,-44,-23
1086,-40,-23
1087,-37,-18
1088,-40,-22
1089,-57,-16
1090,-70,-8
1091,-25,14
1092,108,75
1093,294,183
1094,436,235
1095,410,134
1096,189,17
1097,50,-53
1098,17,-36
1099,-5,-13
1100,-20,-14
1101,-28,-14
1102,-37,-12
1103,-36,-14
1104,-33,-13
1105,-38,-16
1106,-36,-12
1107,-36,-13
1108,-34,-13
1109,-33,-11
1110,-28,-11
1111,-21,-8
1112,-22,-6
1113,-18,-4
1114,-13,-3
1115,-9,1
1116,-4,4
1117,1,9
1118,10,11
1119,20,18
1120,30,23
1121,42,28
1122,50,32
1123,65,40
1124,73,47
1125,92,49
1126,101,54
1127,106,57
1128,116,59
1129,116,58
1130,117,58
1131,105,60
1132,88,53
1133,74,42
1134,49,34
1135,30,23
1136,9,14
1137,0,1
1138,-6,-1
1139,-20,-4
1140,-18,-11
1141,-21,-12
1142,-22,-16
1143,-22,-13
1144,-24,-14
1145,-22,-14
1146,-21,-12
1147,-18,-11
1148,-17,-12
1149,-20,-11
1150,-17,-9
1151,-18,-9
1152,-20,-9
1153,-22,-9
1154,-21,-8
1155,-17,-9
1156,-22,-11
1157,-22,-9
1158,-22,-11
1159,-25,-12
1160,-26,-9
1161,-28,-13
1162,-20,-13
1163,-28,-13
1164,-29,-14
1165,-26,-16
1166,-29,-17
1167,-26,-14
1168,-34,-13
1169,-24,-16
1170,-24,-16
1171,-30,-16
1172,-32,-17
1173,-32,-19
1174,-30,-17
1175,-33,-14
1176,-29,-18
1177,-30,-17
1178,-32,-16
1179,-30,-14
1180,-32,-18
1181,-32,-17
1182,-34,-16
1183,-30,-14
1184,-34,-16
1185,-30,-17
1186,-32,-16
1187,-32,-16
1188,-33,-17
1189,-37,-16
1190,-29,-16
1191,-34,-14
1192,-37,-14
1193,-37,-17
1194,-36,-17
1195,-37,-17
1196,-40,-21
1197,-26,-18
1198,-8,0
1199,-9,7
1200,-14,2
1201,-25,-6
1202,-40,-14
1203,-42,-17
1204,-42,-19
1205,-45,-22
1206,-45,-21
1207,-48,-22
1208,-46,-23
1209,-49,-22
1210,-48,-22
1211,-41,-18
1212,-41,-18
1213,-46,-23
1214,-70,-12
1215,-88,-2
1216,-16,24
1217,148,99
1218,354,211
1219,454,209
1220,368,88
1221,128,-9
1222,34,-43
1223,2,-22
1224,-10,-9
1225,-28,-11
1226,-34,-14
1227,-40,-12
1228,-44,-14
1229,-41,-13
1230,-45,-11
1231,-37,-12
1232,-40,-12
1233,-37,-12
1234,-33,-11
1235,-33,-8
1236,-28,-6
1237,-28,-4
1238,-18,-4
1239,-16,2
1240,-12,1
1241,-5,6
1242,1,8
1243,8,14
1244,14,22
1245,30,24
1246,38,32
1247,52,38
1248,64,44
1249,78,48
1250,89,57
1251,97,60
1252,110,60
1253,113,63
1254,120,65
1255,110,65
1256,100,59
1257,78,54
1258,60,44
1259,44,33
1260,20,22
1261,5,12
1262,-6,4
1263,-14,-1
1264,-22,-4
1265,-24,-8
1266,-22,-9
1267,-25,-11
1268,-22,-12
1269,-26,-13
1270,-21,-12
1271,-26,-7
1272,-24,-8
1273,-16,-9
1274,-21,-8
1275,-20,-6
1276,-21,-6
1277,-22,-7
1278,-22,-6
1279,-24,-6
