,0,1
0,213,10
1,224,13
2,241,13
3,249,16
4,243,17
5,241,12
6,215,12
7,182,12
8,149,9
9,113,2
10,84,8
11,51,8
12,46,4
13,22,5
14,10,5
15,5,4
16,-5,4
17,-6,4
18,-15,4
19,-10,4
20,-15,4
21,-17,1
22,-15,2
23,-10,2
24,-15,2
25,-12,4
26,-5,4
27,-5,4
28,-3,4
29,1,4
30,12,1
31,8,5
32,8,6
33,13,4
34,13,6
35,17,5
36,10,2
37,13,5
38,13,9
39,15,4
40,5,2
41,-3,5
42,10,5
43,20,0
44,-12,1
45,-24,5
46,0,5
47,-17,0
48,-13,-1
49,-24,2
50,6,1
51,-3,1
52,-17,0
53,0,1
54,-27,2
55,-8,4
56,-6,0
57,-10,0
58,-5,-4
59,-8,-5
60,-10,-6
61,-6,-9
62,-15,-2
63,-17,-9
64,-5,-12
65,-17,-9
66,-13,-2
67,-22,-4
68,-24,-4
69,-18,-8
70,-20,-10
71,-22,-10
72,-53,-8
73,-112,-8
74,-136,-14
75,-179,-26
76,-248,-32
77,-334,-34
78,-303,-46
79,-236,-61
80,-301,-56
81,-399,-52
82,-362,-69
83,-217,-45
84,-103,-16
85,-25,-16
86,-3,-4
87,24,-4
88,18,-2
89,20,-1
90,22,4
91,41,0
92,37,0
93,41,1
94,43,4
95,55,2
96,60,5
97,63,-1
98,74,0
99,81,4
100,89,6
101,96,2
102,101,2
103,122,1
104,141,4
105,149,12
106,168,8
107,184,1
108,205,5
109,224,9
110,244,12
111,262,10
112,274,9
113,291,6
114,301,14
115,291,18
116,277,5
117,253,4
118,218,9
119,172,8
120,118,5
121,84,4
122,56,4
123,43,6
124,17,1
125,-6,1
126,-13,0
127,-6,-2
128,-22,8
129,-31,6
130,-31,-1
131,-27,-4
132,-27,5
133,-31,-1
134,-37,2
135,-32,2
136,-27,2
137,-32,-1
138,-27,2
139,-25,0
140,-24,5
141,-32,2
142,-12,1
143,-18,1
144,-18,0
145,-15,2
146,-12,6
147,-18,9
148,-18,6
149,-10,-1
150,-13,4
151,-20,14
152,-25,4
153,-27,1
154,-27,9
155,-27,4
156,-29,1
157,-32,4
158,-36,4
159,-37,0
160,-41,1
161,-29,12
162,-31,-2
163,-41,9
164,-43,1
165,-41,-9
166,-37,5
167,-31,1
168,-34,10
169,-25,-5
170,-37,4
171,-36,-13
172,-36,-9
173,-46,-2
174,-37,-6
175,-29,-4
176,-29,0
177,-43,-2
178,-37,-2
179,-60,6
180,-56,-1
181,-44,-5
182,-49,9
183,-62,-1
184,-87,-8
185,-72,-9
186,-94,-14
187,-167,-16
188,-253,-22
189,-246,-44
190,-177,-53
191,-274,-45
192,-336,-40
193,-310,-33
194,-210,-18
195,-117,0
196,-56,1
197,-29,-1
198,-34,-1
199,-27,0
200,-24,4
201,-25,-1
202,-20,5
203,-13,4
204,-8,0
205,-13,0
206,-5,0
207,-1,1
208,5,6
209,5,4
210,18,-4
211,34,-1
212,36,5
213,49,0
214,62,0
215,75,4
216,86,10
217,108,4
218,129,6
219,144,12
220,163,4
221,181,1
222,201,9
223,215,9
224,236,12
225,241,16
226,241,8
227,229,12
228,203,10
229,165,1
230,118,2
231,87,5
232,56,5
233,17,-5
234,0,0
235,-27,6
236,-31,-10
237,-51,-2
238,-48,-10
239,-48,-4
240,-56,-2
241,-58,-5
242,-56,-5
243,-58,1
244,-68,0
245,-65,0
246,-60,-6
247,-62,-5
248,-55,-4
249,-58,-1
250,-51,-2
251,-53,-1
252,-48,-1
253,-39,-1
254,-36,1
255,-36,1
256,-34,0
257,-31,-1
258,-34,-1
259,-25,-5
260,-24,-2
261,-29,0
262,-32,-4
263,-34,-6
264,-36,0
265,-41,0
266,-34,0
267,-36,-4
268,-44,-5
269,-39,-2
270,-41,-1
271,-43,1
272,-43,2
273,-43,-8
274,-37,4
275,-46,5
276,-43,-2
277,-22,-4
278,-3,5
279,-1,10
280,3,-2
281,-13,-4
282,-25,-5
283,-36,-9
284,-39,-6
285,-39,-4
286,-46,-4
287,-46,-2
288,-43,-1
289,-49,-4
290,-82,-2
291,-94,-4
292,-65,-6
293,-63,-2
294,-84,-4
295,-117,-6
296,-132,-9
297,-189,-18
298,-289,-20
299,-389,-26
300,-362,-44
301,-310,-63
302,-360,-52
303,-381,-44
304,-318,-41
305,-205,-28
306,-101,-5
307,-46,-4
308,-17,-2
309,-10,0
310,0,4
311,1,2
312,3,-1
313,8,1
314,8,4
315,17,0
316,36,1
317,20,-5
318,29,2
319,39,-4
320,48,4
321,46,2
322,68,-2
323,77,2
324,84,5
325,94,1
326,108,2
327,129,4
328,141,6
329,174,8
330,196,8
331,208,10
332,227,9
333,248,10
334,262,16
335,274,14
336,286,10
337,279,12
338,265,10
339,239,14
340,194,13
341,149,10
342,106,6
343,75,6
344,43,6
345,17,5
346,3,4
347,-10,5
348,-24,8
349,-27,5
350,-24,8
351,-32,6
352,-32,2
353,-32,2
354,-32,8
355,-32,6
356,-32,2
357,-20,4
358,-22,4
359,-24,8
360,-24,5
361,-20,-1
362,-17,6
363,-12,2
364,15,2
365,31,6
366,37,9
367,24,10
368,15,9
369,17,10
370,8,9
371,13,12
372,6,13
373,0,13
374,-5,6
375,-13,0
376,-20,-1
377,-25,-1
378,-24,0
379,-29,4
380,-29,4
381,-34,4
382,-94,4
383,-112,4
384,-60,2
385,-44,1
386,-77,4
387,-125,1
388,-163,-5
389,-179,-12
390,-108,-20
391,-37,-40
392,-99,-49
393,-239,-46
394,-298,-37
395,-244,-21
396,-146,-6
397,-77,4
398,-36,8
399,-20,10
400,-18,8
401,-15,9
402,-10,12
403,-10,16
404,-15,14
405,-5,10
406,-1,13
407,-1,17
408,-3,17
409,5,16
410,10,17
411,13,20
412,29,18
413,34,24
414,37,21
415,46,20
416,58,21
417,67,22
418,74,25
419,101,26
420,105,24
421,120,29
422,132,29
423,139,28
424,156,32
425,156,33
426,174,29
427,175,32
428,172,33
429,156,28
430,136,28
431,106,29
432,82,28
433,60,25
434,36,30
435,13,28
436,-1,22
437,-10,25
438,-24,26
439,-18,25
440,-25,25
441,-32,24
442,-29,24
443,-31,22
444,-32,25
445,-25,28
446,-25,28
447,-25,24
448,-24,24
449,-24,22
450,-20,24
451,-22,26
452,-12,22
453,-13,25
454,-15,26
455,-17,24
456,-13,21
457,-13,22
458,-15,26
459,-6,25
460,-18,21
461,-8,24
462,-22,28
463,-18,18
464,-24,26
465,-20,21
466,-22,24
467,-27,25
468,-29,25
469,-32,21
470,-29,22
471,-34,29
472,-31,21
473,-29,22
474,-32,24
475,-32,24
476,-36,20
477,-36,20
478,-32,17
479,-27,16
480,-37,17
481,-36,14
482,-36,9
483,-37,10
484,-32,13
485,-22,12
486,-20,13
487,-24,8
488,-25,1
489,-24,0
490,-31,9
491,-31,5
492,-24,2
493,-18,1
494,-22,9
495,-37,8
496,6,10
497,-153,10
498,-101,16
499,-63,20
500,-39,9
501,-91,12
502,-136,8
503,-162,8
504,-224,-1
505,-325,-5
506,-408,-10
507,-308,-21
508,-291,-46
509,-372,-29
510,-377,-17
511,-275,-14
512,-165,8
513,-70,24
514,-22,29
515,-10,29
516,-1,36
517,5,32
518,13,34
519,12,33
520,13,32
521,17,36
522,18,36
523,22,34
524,32,34
525,36,32
526,43,30
527,51,32
528,60,29
529,67,30
530,77,32
531,94,29
532,103,30
533,118,30
534,134,28
535,153,29
536,170,29
537,193,30
538,218,32
539,234,32
540,248,30
541,260,30
542,275,30
543,281,30
544,284,32
545,260,30
546,232,22
547,191,25
548,156,21
549,115,18
550,75,18
551,58,18
552,31,16
553,13,13
554,3,18
555,-12,17
556,-12,16
557,-22,14
558,-15,14
559,-20,14
560,-20,18
561,-22,17
562,-25,8
563,-18,12
564,-15,13
565,-12,13
566,-17,14
567,-15,12
568,-15,14
569,-13,17
570,-17,16
571,-12,13
572,-5,16
573,-6,16
574,-1,17
575,-5,18
576,-1,13
577,-6,20
578,-3,17
579,-1,17
580,-12,16
581,-10,18
582,-15,16
583,-17,18
584,-24,22
585,-24,17
586,-18,18
587,-25,21
588,-29,24
589,-29,20
590,-27,20
591,-36,22
592,-36,22
593,-25,21
594,-31,24
595,-24,22
596,-22,26
597,-20,25
598,-20,21
599,-20,16
600,-17,14
601,-24,14
602,-27,16
603,-25,14
604,-17,18
605,-20,14
606,-31,21
607,-15,21
608,-74,18
609,-94,18
610,-53,20
611,-41,13
612,-70,13
613,-94,13
614,-96,6
615,-127,0
616,-194,-13
617,-294,-18
618,-286,-28
619,-237,-45
620,-320,-28
621,-368,-28
622,-336,-40
623,-217,-22
624,-108,2
625,-46,8
626,-18,13
627,-13,16
628,-8,14
629,0,14
630,-3,14
631,3,10
632,8,14
633,8,14
634,15,14
635,15,16
636,27,13
637,32,16
638,39,16
639,43,17
640,53,10
641,62,10
642,65,17
643,87,13
644,96,14
645,106,14
646,124,12
647,139,10
648,163,10
649,179,17
650,194,14
651,218,17
652,224,18
653,239,16
654,243,18
655,243,18
656,225,16
657,199,14
658,170,13
659,122,13
660,86,8
661,53,4
662,25,2
663,0,5
664,-18,4
665,-25,1
666,-34,2
667,-37,4
668,-44,4
669,-49,2
670,-46,2
671,-55,5
672,-49,2
673,-51,2
674,-55,1
675,-51,4
676,-53,1
677,-49,2
678,-56,4
679,-44,1
680,-41,0
681,-44,-2
682,-37,-2
683,-39,-4
684,-31,-8
685,-31,-4
686,-34,-5
687,-25,-13
688,-32,-17
689,-31,-16
690,-34,-20
691,-34,-24
692,-39,-22
693,-43,-21
694,-37,-26
695,-39,-28
696,-43,-32
697,-43,-30
698,-48,-32
699,-48,-32
700,-56,-34
701,-29,-32
702,-37,-37
703,-49,-38
704,-49,-38
705,-51,-34
706,-43,-29
707,-46,-25
708,-32,-25
709,-32,-29
710,-36,-32
711,-37,-32
712,-44,-34
713,-44,-29
714,-43,-28
715,-34,-28
716,-36,-26
717,-49,-22
718,-48,-20
719,-67,-17
720,-74,-17
721,-63,-17
722,-46,-18
723,-77,-18
724,-108,-21
725,-112,-24
726,-144,-33
727,-215,-42
728,-336,-44
729,-324,-57
730,-232,-77
731,-339,-65
732,-399,-56
733,-356,-71
734,-225,-55
735,-115,-28
736,-51,-17
737,-22,-18
738,-20,-14
739,-10,-14
740,-6,-17
741,-3,-20
742,-1,-14
743,1,-16
744,12,-17
745,13,-13
746,13,-10
747,20,-13
748,27,-14
749,34,-12
750,43,-8
751,58,-8
752,63,-10
753,77,-9
754,87,-2
755,99,-5
756,118,-4
757,136,-1
758,165,-1
759,179,5
760,201,-1
761,218,1
762,236,5
763,253,9
764,255,6
765,272,1
766,274,6
767,253,6
768,225,4
769,187,0
770,148,2
771,105,0
772,70,-8
773,43,-6
774,15,-5
775,-5,-5
776,-18,-8
777,-25,-8
778,-32,-2
779,-34,-4
780,-36,-4
781,-39,-8
782,-43,-10
783,-41,-6
784,-41,-2
785,-48,-2
786,-32,-5
787,-36,0
788,-37,-4
789,-31,-9
790,-32,-8
791,-24,-5
792,-25,0
793,-18,-5
794,-13,-2
795,-15,0
796,-15,-2
797,-13,-5
798,-10,-5
799,-18,0
800,-12,-1
801,-18,-5
802,-22,-2
803,-25,-2
804,-24,-4
805,-27,1
806,-34,1
807,-31,-5
808,-29,-1
809,-39,-1
810,-31,-6
811,-43,-1
812,-15,2
813,-29,-2
814,-41,-6
815,-34,-5
816,-39,-4
817,-27,-5
818,-31,-1
819,-31,-4
820,-24,-8
821,-20,-10
822,-22,-9
823,-32,-16
824,-32,-18
825,-25,-14
826,-18,-10
827,-27,-9
828,-32,-12
829,-37,-8
830,-36,-5
831,-32,0
832,-43,-2
833,-43,-5
834,-87,-1
835,-115,-6
836,-137,-14
837,-205,-18
838,-322,-18
839,-431,-32
840,-408,-46
841,-362,-53
842,-391,-49
843,-398,-48
844,-336,-56
845,-222,-30
846,-105,-2
847,-32,-5
848,-13,16
849,5,4
850,12,4
851,6,14
852,22,4
853,22,0
854,18,12
855,22,8
856,32,14
857,39,8
858,37,8
859,44,13
860,49,18
861,62,-5
862,68,13
863,74,13
864,93,9
865,101,8
866,110,20
867,124,10
868,143,8
869,160,20
870,181,10
871,198,16
872,210,18
873,231,16
874,244,17
875,255,25
876,255,26
877,260,20
878,248,18
879,215,16
880,184,12
881,148,13
882,106,21
883,65,10
884,46,8
885,20,14
886,1,12
887,-6,6
888,-18,22
889,-27,10
890,-36,5
891,-27,22
892,-37,6
893,-34,21
894,-36,22
895,-39,4
896,-36,8
897,-32,17
898,-29,18
899,-31,16
900,-27,25
901,-29,18
902,-22,4
903,-20,14
904,-20,22
905,-13,22
906,-12,32
907,-12,10
908,-18,4
909,-15,9
910,-15,24
911,-10,24
912,-12,25
913,-18,28
914,-20,21
915,-24,13
916,-22,21
917,-32,36
918,-25,18
919,-29,14
920,-31,17
921,-29,28
922,-43,37
923,-8,26
924,-34,9
925,-25,29
926,-32,28
927,-27,44
928,-27,30
929,-24,13
930,-20,33
931,-27,36
932,-6,22
933,-24,8
934,-44,17
935,-27,30
936,-18,8
937,-6,-1
938,-25,55
939,-12,13
940,-65,20
941,-27,0
942,-18,8
943,-36,20
944,-41,26
945,-48,16
946,-77,22
947,-65,-5
948,-127,-12
949,-182,2
950,-282,-24
951,-284,-37
952,-218,-46
953,-243,-42
954,-291,-25
955,-265,-36
956,-182,-25
957,-86,-4
958,-55,24
959,-25,13
960,12,1
961,5,9
962,5,12
963,-3,14
964,8,6
965,6,-8
966,5,9
967,25,12
968,24,8
969,18,-1
970,31,17
971,32,-4
972,29,-6
973,46,2
974,51,-12
975,89,-8
976,32,40
977,94,-4
978,108,-26
979,93,-12
980,103,9
981,158,-4
982,189,5
983,125,29
984,229,-21
985,163,-17
986,237,-4
987,227,-8
988,201,8
989,222,2
990,201,-12
991,156,-1
992,137,4
993,99,-13
994,55,-6
995,31,-17
996,22,5
997,3,16
998,-10,-6
999,-15,-16
1000,-37,-8
1001,-22,5
1002,-15,12
1003,-48,1
1004,-32,5
1005,-22,-1
1006,-32,-10
1007,-31,-4
1008,-31,13
1009,-31,13
1010,-32,-9
1011,-25,0
1012,-24,10
1013,-20,-10
1014,-15,10
1015,-15,-8
1016,-12,-8
1017,-58,-4
1018,1,9
1019,6,30
1020,-10,-6
1021,-12,-13
1022,-17,-6
1023,-12,-6
1024,-3,-2
1025,-15,1
1026,-13,-16
1027,-15,-12
1028,-22,2
1029,-22,10
1030,-27,-8
1031,-29,-14
1032,-32,-20
1033,-22,6
1034,-20,12
1035,-34,-17
1036,-25,-24
1037,-32,-5
1038,-27,-9
1039,-20,-14
1040,-17,-9
1041,-36,13
1042,-34,-10
1043,-1,-34
1044,-15,-20
1045,-34,-17
1046,-63,1
1047,-13,-13
1048,3,-32
1049,-12,-6
1050,-31,-10
1051,-36,-4
1052,-46,-8
1053,-37,-17
1054,-29,-8
1055,-39,0
1056,-58,0
1057,-49,-13
1058,-39,-1
1059,-62,-21
1060,-113,2
1061,-174,-34
1062,-172,-41
1063,-146,-33
1064,-155,-40
1065,-248,-41
1066,-253,-41
1067,-175,-28
1068,-87,-6
1069,-41,9
1070,-20,6
1071,-18,9
1072,-8,-9
1073,-1,-4
1074,-10,12
1075,12,6
1076,-6,-12
1077,12,-17
1078,17,-5
1079,15,9
1080,-22,-22
1081,49,-9
1082,43,0
1083,32,-4
1084,24,-21
1085,63,-17
1086,63,-8
1087,70,4
1088,75,-5
1089,93,-14
1090,98,-9
1091,118,5
1092,143,12
1093,153,-12
1094,172,-12
1095,175,-8
1096,196,0
1097,217,8
1098,225,-1
1099,231,-13
1100,225,12
1101,194,9
1102,172,-4
1103,146,-4
1104,93,-1
1105,86,-5
1106,-18,14
1107,49,-26
1108,22,9
1109,-15,13
1110,-10,-24
1111,-29,-10
1112,-41,14
1113,-12,-9
1114,-22,-9
1115,-55,-1
1116,-12,-5
1117,-48,-1
1118,-22,17
1119,-25,-4
1120,-24,-8
1121,-43,2
1122,-18,0
1123,-31,-8
1124,-10,-6
1125,-18,0
1126,-27,17
1127,-8,-2
1128,-8,-13
1129,-6,-4
1130,-12,10
1131,-12,-6
1132,-12,-17
1133,-15,9
1134,-10,-10
1135,-15,5
1136,-18,4
1137,-22,0
1138,-25,-9
1139,-27,-13
1140,-20,-5
1141,-24,9
1142,-29,-2
1143,-24,-10
1144,-34,20
1145,-75,-2
1146,-3,-12
1147,-31,-6
1148,-34,0
1149,-8,4
1150,-48,6
1151,-25,-4
1152,-12,-4
1153,-15,-1
1154,-15,-2
1155,-39,-13
1156,-17,-10
1157,-41,-9
1158,-17,-9
1159,-29,-13
1160,-12,-10
1161,-44,2
1162,-37,-1
1163,-53,-2
1164,-49,-10
1165,-31,-16
1166,-79,-12
1167,-58,1
1168,-63,-9
1169,-72,-8
1170,-93,-17
1171,-184,-36
1172,-263,-32
1173,-193,-42
1174,-139,-71
1175,-229,-42
1176,-296,-24
1177,-229,-63
1178,-179,-40
1179,-55,-17
1180,-44,4
1181,-15,1
1182,12,-13
1183,3,28
1184,-6,14
1185,-12,-18
1186,17,4
1187,6,-2
1188,17,-1
1189,-15,9
1190,8,-1
1191,46,-2
1192,34,1
1193,29,13
1194,39,21
1195,43,-6
1196,56,-2
1197,60,1
1198,81,8
1199,84,4
1200,89,2
1201,108,8
1202,124,1
1203,144,2
1204,162,4
1205,177,5
1206,191,20
1207,172,10
1208,220,-1
1209,237,16
1210,229,4
1211,212,8
1212,196,-2
1213,162,8
1214,131,9
1215,98,40
1216,60,-9
1217,43,-17
1218,12,-4
1219,3,-1
1220,-17,13
1221,-12,8
1222,-18,-10
1223,-20,-1
1224,-29,22
1225,-46,-9
1226,-27,-9
1227,-31,4
1228,-25,8
1229,-32,-4
1230,-34,-4
1231,-31,5
1232,-22,-4
1233,-22,-6
1234,-37,8
1235,-3,4
1236,-18,-2
1237,-27,4
1238,-10,6
1239,-13,-4
1240,-8,-4
1241,-22,-1
1242,-18,0
1243,1,-2
1244,-12,24
1245,-13,-9
1246,-39,-1
1247,-18,-9
1248,-17,-4
1249,-18,4
1250,-25,1
1251,-27,-8
1252,-34,4
1253,-27,8
1254,-27,8
1255,-27,-4
1256,-36,4
1257,-62,14
1258,-24,-1
1259,-27,-4
1260,-36,1
1261,-29,1
1262,-10,5
1263,-20,16
1264,-27,2
1265,-24,2
1266,-20,-14
1267,-20,-8
1268,-31,-5
1269,-17,-9
1270,-15,-2
1271,-25,-5
1272,-34,-5
1273,-17,-4
1274,-118,-1
1275,-65,8
1276,-44,9
1277,-51,-2
1278,-68,-8
1279,-84,-1
