,0
0,123.0
1,128.0
2,86.0
3,39.0
4,11.0
5,1.0
6,-3.0
7,-4.0
8,-5.0
9,-5.0
10,-6.0
11,-6.0
12,-6.0
13,-6.0
14,-5.0
15,-5.0
16,-4.0
17,-3.0
18,-3.0
19,-3.0
20,-3.0
21,-2.0
22,-1.0
23,0.0
24,0.0
25,0.0
26,0.0
27,1.0
28,2.0
29,2.0
30,3.0
31,4.0
32,6.0
33,8.0
34,10.0
35,12.0
36,15.0
37,17.0
38,18.0
39,18.0
40,17.0
41,16.0
42,14.0
43,11.0
44,7.0
45,4.0
46,2.0
47,0.0
48,-1.0
49,-4.0
50,-6.0
51,-7.0
52,-8.0
53,-8.0
54,-8.0
55,-8.0
56,-8.0
57,-8.0
58,-8.0
59,-8.0
60,-8.0
61,-8.0
62,-8.0
63,-8.0
64,-7.0
65,-7.0
66,-6.0
67,-5.0
68,-5.0
69,-6.0
70,-6.0
71,-5.0
72,-5.0
73,-4.0
74,-4.0
75,-4.0
76,-3.0
77,-2.0
78,-1.0
79,-1.0
80,0.0
81,0.0
82,0.0
83,-2.0
84,-3.0
85,-2.0
86,-2.0
87,-2.0
88,-2.0
89,-3.0
90,-3.0
91,-2.0
92,-2.0
93,-3.0
94,0.0
95,17.0
96,64.0
97,114.0
98,125.0
99,92.0
100,46.0
101,15.0
102,2.0
103,-2.0
104,-4.0
105,-5.0
106,-6.0
107,-7.0
108,-6.0
109,-5.0
110,-5.0
111,-6.0
112,-5.0
113,-4.0
114,-4.0
115,-3.0
116,-3.0
117,-3.0
118,-2.0
119,-1.0
120,0.0
121,0.0
122,0.0
123,0.0
124,1.0
125,2.0
126,2.0
127,3.0
128,4.0
129,5.0
130,7.0
131,9.0
132,11.0
133,14.0
134,16.0
135,17.0
136,18.0
137,18.0
138,16.0
139,14.0
140,11.0
141,7.0
142,3.0
143,1.0
144,-1.0
145,-3.0
146,-4.0
147,-6.0
148,-7.0
149,-8.0
150,-8.0
151,-8.0
152,-8.0
153,-8.0
154,-8.0
155,-8.0
156,-8.0
157,-8.0
158,-8.0
159,-8.0
160,-8.0
161,-7.0
162,-6.0
163,-5.0
164,-5.0
165,-5.0
166,-6.0
167,-6.0
168,-6.0
169,-5.0
170,-4.0
171,-4.0
172,-4.0
173,-4.0
174,-3.0
175,-2.0
176,-1.0
177,-1.0
178,0.0
179,0.0
180,-1.0
181,-2.0
182,-3.0
183,-2.0
184,-2.0
185,-2.0
186,-3.0
187,-3.0
188,-3.0
189,-3.0
190,-3.0
191,1.0
192,25.0
193,73.0
194,117.0
195,120.0
196,83.0
197,39.0
198,11.0
199,0.0
200,-3.0
201,-5.0
202,-6.0
203,-7.0
204,-7.0
205,-7.0
206,-6.0
207,-5.0
208,-5.0
209,-5.0
210,-4.0
211,-4.0
212,-3.0
213,-3.0
214,-3.0
215,-2.0
216,-1.0
217,-1.0
218,0.0
219,0.0
220,0.0
221,1.0
222,2.0
223,2.0
224,3.0
225,5.0
226,8.0
227,10.0
228,12.0
229,14.0
230,17.0
231,19.0
232,20.0
233,20.0
234,19.0
235,17.0
236,14.0
237,11.0
238,7.0
239,3.0
240,1.0
241,-1.0
242,-3.0
243,-5.0
244,-7.0
245,-8.0
246,-9.0
247,-10.0
248,-10.0
249,-10.0
250,-10.0
251,-10.0
252,-10.0
253,-10.0
254,-10.0
255,-9.0
256,-9.0
257,-8.0
258,-8.0
259,-8.0
260,-8.0
261,-8.0
262,-8.0
263,-7.0
264,-7.0
265,-6.0
266,-5.0
267,-5.0
268,-6.0
269,-5.0
270,-5.0
271,-4.0
272,-3.0
273,-2.0
274,-1.0
275,-1.0
276,-1.0
277,-2.0
278,-3.0
279,-3.0
280,-3.0
281,-3.0
282,-3.0
283,-3.0
284,-3.0
285,-3.0
286,-4.0
287,-4.0
288,3.0
289,31.0
290,83.0
291,128.0
292,123.0
293,76.0
294,31.0
295,6.0
296,-2.0
297,-5.0
298,-7.0
299,-7.0
300,-8.0
301,-8.0
302,-8.0
303,-7.0
304,-7.0
305,-6.0
306,-5.0
307,-5.0
308,-5.0
309,-4.0
310,-3.0
311,-3.0
312,-1.0
313,-1.0
314,0.0
315,0.0
316,0.0
317,1.0
318,2.0
319,2.0
320,3.0
321,4.0
322,6.0
323,9.0
324,11.0
325,13.0
326,16.0
327,18.0
328,20.0
329,21.0
330,21.0
331,20.0
332,17.0
333,15.0
334,11.0
335,7.0
336,3.0
337,0.0
338,-1.0
339,-4.0
340,-6.0
341,-7.0
342,-8.0
343,-9.0
344,-9.0
345,-10.0
346,-10.0
347,-10.0
348,-10.0
349,-10.0
350,-10.0
351,-10.0
352,-9.0
353,-8.0
354,-8.0
355,-8.0
356,-8.0
357,-8.0
358,-7.0
359,-7.0
360,-7.0
361,-6.0
362,-6.0
363,-5.0
364,-5.0
365,-6.0
366,-6.0
367,-6.0
368,-5.0
369,-4.0
370,-3.0
371,-2.0
372,-1.0
373,-1.0
374,0.0
375,0.0
376,-1.0
377,-3.0
378,-3.0
379,-3.0
380,-3.0
381,-3.0
382,-3.0
383,-3.0
384,-3.0
385,-3.0
386,-4.0
387,-2.0
388,14.0
389,60.0
390,115.0
391,132.0
392,98.0
393,49.0
394,16.0
395,1.0
396,-3.0
397,-5.0
398,-6.0
399,-7.0
400,-8.0
401,-7.0
402,-7.0
403,-6.0
404,-5.0
405,-5.0
406,-5.0
407,-4.0
408,-4.0
409,-3.0
410,-3.0
411,-2.0
412,-1.0
413,0.0
414,0.0
415,0.0
416,1.0
417,2.0
418,2.0
419,3.0
420,4.0
421,5.0
422,7.0
423,9.0
424,12.0
425,14.0
426,16.0
427,17.0
428,18.0
429,19.0
430,20.0
431,19.0
432,16.0
433,13.0
434,9.0
435,5.0
436,2.0
437,0.0
438,-1.0
439,-4.0
440,-5.0
441,-6.0
442,-7.0
443,-8.0
444,-9.0
445,-9.0
446,-9.0
447,-9.0
448,-8.0
449,-8.0
450,-8.0
451,-8.0
452,-8.0
453,-8.0
454,-8.0
455,-7.0
456,-7.0
457,-6.0
458,-5.0
459,-5.0
460,-5.0
461,-6.0
462,-6.0
463,-6.0
464,-5.0
465,-5.0
466,-5.0
467,-4.0
468,-3.0
469,-2.0
470,-2.0
471,-1.0
472,-1.0
473,0.0
474,0.0
475,-1.0
476,-2.0
477,-3.0
478,-2.0
479,-2.0
480,-3.0
481,-3.0
482,-3.0
483,-3.0
484,-3.0
485,-3.0
486,0.0
487,20.0
488,66.0
489,113.0
490,122.0
491,88.0
492,44.0
493,14.0
494,0.0
495,-4.0
496,-6.0
497,-7.0
498,-8.0
499,-8.0
500,-7.0
501,-6.0
502,-5.0
503,-5.0
504,-5.0
505,-5.0
506,-4.0
507,-3.0
508,-3.0
509,-3.0
510,-2.0
511,-1.0
512,-1.0
513,-1.0
514,0.0
515,0.0
516,1.0
517,1.0
518,2.0
519,2.0
520,4.0
521,5.0
522,8.0
523,10.0
524,12.0
525,14.0
526,16.0
527,17.0
528,18.0
529,18.0
530,16.0
531,14.0
532,11.0
533,7.0
534,4.0
535,1.0
536,0.0
537,-2.0
538,-4.0
539,-6.0
540,-7.0
541,-8.0
542,-8.0
543,-8.0
544,-8.0
545,-8.0
546,-8.0
547,-9.0
548,-8.0
549,-8.0
550,-8.0
551,-8.0
552,-8.0
553,-8.0
554,-8.0
555,-8.0
556,-7.0
557,-7.0
558,-6.0
559,-5.0
560,-5.0
561,-6.0
562,-6.0
563,-6.0
564,-5.0
565,-5.0
566,-4.0
567,-3.0
568,-3.0
569,-2.0
570,-1.0
571,0.0
572,0.0
573,-1.0
574,-2.0
575,-3.0
576,-2.0
577,-2.0
578,-2.0
579,-3.0
580,-3.0
581,-3.0
582,-3.0
583,-3.0
584,-2.0
585,8.0
586,43.0
587,96.0
588,128.0
589,111.0
590,63.0
591,23.0
592,4.0
593,-3.0
594,-5.0
595,-7.0
596,-8.0
597,-8.0
598,-8.0
599,-7.0
600,-7.0
601,-6.0
602,-5.0
603,-5.0
604,-5.0
605,-4.0
606,-4.0
607,-3.0
608,-3.0
609,-2.0
610,-2.0
611,-1.0
612,0.0
613,0.0
614,0.0
615,1.0
616,2.0
617,2.0
618,3.0
619,4.0
620,6.0
621,8.0
622,10.0
623,12.0
624,15.0
625,17.0
626,18.0
627,17.0
628,16.0
629,15.0
630,12.0
631,9.0
632,5.0
633,2.0
634,0.0
635,-1.0
636,-4.0
637,-6.0
638,-7.0
639,-8.0
640,-8.0
641,-8.0
642,-8.0
643,-8.0
644,-8.0
645,-8.0
646,-8.0
647,-8.0
648,-8.0
649,-8.0
650,-8.0
651,-8.0
652,-8.0
653,-7.0
654,-7.0
655,-6.0
656,-5.0
657,-5.0
658,-6.0
659,-6.0
660,-5.0
661,-5.0
662,-4.0
663,-3.0
664,-3.0
665,-2.0
666,-1.0
667,-1.0
668,-1.0
669,-1.0
670,-1.0
671,-1.0
672,-3.0
673,-3.0
674,-2.0
675,-2.0
676,-3.0
677,-3.0
678,-2.0
679,-1.0
680,-1.0
681,-2.0
682,-1.0
683,13.0
684,58.0
685,113.0
686,130.0
687,96.0
688,48.0
689,15.0
690,1.0
691,-3.0
692,-5.0
693,-6.0
694,-7.0
695,-7.0
696,-7.0
697,-7.0
698,-6.0
699,-5.0
700,-5.0
701,-5.0
702,-4.0
703,-4.0
704,-3.0
705,-3.0
706,-3.0
707,-2.0
708,-1.0
709,-1.0
710,0.0
711,0.0
712,0.0
713,2.0
714,2.0
715,3.0
716,4.0
717,5.0
718,8.0
719,10.0
720,12.0
721,14.0
722,16.0
723,18.0
724,18.0
725,17.0
726,17.0
727,15.0
728,12.0
729,8.0
730,4.0
731,2.0
732,0.0
733,-2.0
734,-4.0
735,-6.0
736,-7.0
737,-8.0
738,-8.0
739,-8.0
740,-9.0
741,-9.0
742,-9.0
743,-8.0
744,-8.0
745,-8.0
746,-8.0
747,-8.0
748,-8.0
749,-8.0
750,-8.0
751,-7.0
752,-7.0
753,-6.0
754,-6.0
755,-6.0
756,-5.0
757,-5.0
758,-6.0
759,-5.0
760,-5.0
761,-4.0
762,-3.0
763,-3.0
764,-2.0
765,-1.0
766,-1.0
767,-1.0
768,-2.0
769,-2.0
770,-3.0
771,-3.0
772,-3.0
773,-3.0
774,-3.0
775,-3.0
776,-3.0
777,-3.0
778,-3.0
779,-1.0
780,17.0
781,63.0
782,113.0
783,126.0
784,94.0
785,48.0
786,15.0
787,1.0
788,-3.0
789,-6.0
790,-7.0
791,-8.0
792,-7.0
793,-7.0
794,-7.0
795,-6.0
796,-5.0
797,-5.0
798,-4.0
799,-4.0
800,-3.0
801,-3.0
802,-2.0
803,-1.0
804,-1.0
805,0.0
806,0.0
807,0.0
808,1.0
809,2.0
810,2.0
811,2.0
812,3.0
813,5.0
814,8.0
815,10.0
816,12.0
817,15.0
818,17.0
819,19.0
820,21.0
821,22.0
822,21.0
823,19.0
824,16.0
825,13.0
826,8.0
827,4.0
828,1.0
829,0.0
830,-3.0
831,-5.0
832,-6.0
833,-7.0
834,-8.0
835,-9.0
836,-10.0
837,-10.0
838,-10.0
839,-10.0
840,-10.0
841,-10.0
842,-9.0
843,-8.0
844,-8.0
845,-8.0
846,-8.0
847,-8.0
848,-8.0
849,-7.0
850,-7.0
851,-6.0
852,-5.0
853,-5.0
854,-5.0
855,-6.0
856,-6.0
857,-5.0
858,-5.0
859,-4.0
860,-3.0
861,-2.0
862,-1.0
863,0.0
864,0.0
865,0.0
866,-2.0
867,-3.0
868,-2.0
869,-2.0
870,-2.0
871,-3.0
872,-3.0
873,-3.0
874,-3.0
875,-4.0
876,-2.0
877,9.0
878,44.0
879,96.0
880,130.0
881,112.0
882,64.0
883,24.0
884,3.0
885,-2.0
886,-5.0
887,-7.0
888,-8.0
889,-8.0
890,-8.0
891,-7.0
892,-7.0
893,-6.0
894,-5.0
895,-5.0
896,-5.0
897,-4.0
898,-3.0
899,-3.0
900,-3.0
901,-2.0
902,-1.0
903,0.0
904,0.0
905,0.0
906,1.0
907,2.0
908,2.0
909,3.0
910,5.0
911,7.0
912,10.0
913,12.0
914,14.0
915,17.0
916,19.0
917,20.0
918,21.0
919,21.0
920,20.0
921,17.0
922,14.0
923,10.0
924,5.0
925,3.0
926,0.0
927,-1.0
928,-4.0
929,-6.0
930,-7.0
931,-9.0
932,-9.0
933,-10.0
934,-10.0
935,-10.0
936,-10.0
937,-10.0
938,-10.0
939,-10.0
940,-9.0
941,-8.0
942,-8.0
943,-8.0
944,-8.0
945,-8.0
946,-8.0
947,-7.0
948,-7.0
949,-6.0
950,-5.0
951,-5.0
952,-5.0
953,-6.0
954,-6.0
955,-5.0
956,-4.0
957,-3.0
958,-3.0
959,-2.0
960,-1.0
961,0.0
962,0.0
963,0.0
964,-2.0
965,-3.0
966,-2.0
967,-2.0
968,-2.0
969,-3.0
970,-3.0
971,-3.0
972,-3.0
973,-3.0
974,-1.0
975,9.0
976,45.0
977,99.0
978,131.0
979,107.0
980,56.0
981,18.0
982,2.0
983,-3.0
984,-5.0
985,-6.0
986,-7.0
987,-8.0
988,-8.0
989,-7.0
990,-7.0
991,-6.0
992,-5.0
993,-5.0
994,-4.0
995,-4.0
996,-3.0
997,-3.0
998,-3.0
999,-1.0
1000,-1.0
1001,0.0
1002,0.0
1003,0.0
1004,0.0
1005,1.0
1006,2.0
1007,3.0
1008,4.0
1009,6.0
1010,8.0
1011,10.0
1012,12.0
1013,15.0
1014,17.0
1015,18.0
1016,19.0
1017,19.0
1018,18.0
1019,16.0
1020,13.0
1021,9.0
1022,5.0
1023,2.0
1024,0.0
1025,-1.0
1026,-3.0
1027,-5.0
1028,-6.0
1029,-8.0
1030,-9.0
1031,-9.0
1032,-10.0
1033,-10.0
1034,-10.0
1035,-10.0
1036,-9.0
1037,-8.0
1038,-8.0
1039,-8.0
1040,-8.0
1041,-8.0
1042,-8.0
1043,-8.0
1044,-7.0
1045,-6.0
1046,-5.0
1047,-5.0
1048,-5.0
1049,-6.0
1050,-6.0
1051,-6.0
1052,-6.0
1053,-5.0
1054,-4.0
1055,-4.0
1056,-3.0
1057,-3.0
1058,-2.0
1059,-1.0
1060,-1.0
1061,-1.0
1062,-3.0
1063,-3.0
1064,-3.0
1065,-3.0
1066,-3.0
1067,-3.0
1068,-3.0
1069,-3.0
1070,-3.0
1071,-3.0
1072,-3.0
1073,2.0
1074,31.0
1075,83.0
1076,123.0
1077,116.0
1078,73.0
1079,31.0
1080,7.0
1081,-1.0
1082,-5.0
1083,-6.0
1084,-7.0
1085,-8.0
1086,-8.0
1087,-7.0
1088,-7.0
1089,-6.0
1090,-5.0
1091,-5.0
1092,-5.0
1093,-4.0
1094,-4.0
1095,-3.0
1096,-3.0
1097,-2.0
1098,-1.0
1099,-1.0
1100,0.0
1101,0.0
1102,0.0
1103,1.0
1104,2.0
1105,2.0
1106,3.0
1107,4.0
1108,6.0
1109,9.0
1110,10.0
1111,12.0
1112,14.0
1113,16.0
1114,17.0
1115,18.0
1116,17.0
1117,16.0
1118,13.0
1119,9.0
1120,6.0
1121,2.0
1122,0.0
1123,-1.0
1124,-3.0
1125,-5.0
1126,-6.0
1127,-7.0
1128,-8.0
1129,-8.0
1130,-9.0
1131,-9.0
1132,-9.0
1133,-9.0
1134,-9.0
1135,-9.0
1136,-9.0
1137,-8.0
1138,-8.0
1139,-8.0
1140,-8.0
1141,-8.0
1142,-7.0
1143,-7.0
1144,-6.0
1145,-5.0
1146,-5.0
1147,-6.0
1148,-6.0
1149,-6.0
1150,-6.0
1151,-5.0
1152,-5.0
1153,-4.0
1154,-3.0
1155,-3.0
1156,-3.0
1157,-2.0
1158,-1.0
1159,-1.0
1160,-2.0
1161,-3.0
1162,-3.0
1163,-2.0
1164,-2.0
1165,-3.0
1166,-3.0
1167,-3.0
1168,-3.0
1169,-3.0
1170,-3.0
1171,3.0
1172,29.0
1173,78.0
1174,120.0
1175,118.0
1176,78.0
1177,35.0
1178,9.0
1179,-1.0
1180,-4.0
1181,-6.0
1182,-7.0
1183,-8.0
1184,-8.0
1185,-8.0
1186,-7.0
1187,-7.0
1188,-6.0
1189,-5.0
1190,-5.0
1191,-5.0
1192,-4.0
1193,-3.0
1194,-3.0
1195,-3.0
1196,-3.0
1197,-2.0
1198,-1.0
1199,0.0
1200,0.0
1201,0.0
1202,1.0
1203,2.0
1204,2.0
1205,3.0
1206,6.0
1207,8.0
1208,10.0
1209,12.0
1210,14.0
1211,16.0
1212,17.0
1213,18.0
1214,17.0
1215,15.0
1216,13.0
1217,10.0
1218,6.0
1219,3.0
1220,1.0
1221,-1.0
1222,-3.0
1223,-5.0
1224,-7.0
1225,-8.0
1226,-8.0
1227,-9.0
1228,-9.0
1229,-10.0
1230,-10.0
1231,-10.0
1232,-10.0
1233,-9.0
1234,-9.0
1235,-8.0
1236,-8.0
1237,-8.0
1238,-8.0
1239,-8.0
1240,-8.0
1241,-8.0
1242,-7.0
1243,-7.0
1244,-6.0
1245,-5.0
1246,-5.0
1247,-6.0
1248,-5.0
1249,-4.0
1250,-4.0
1251,-3.0
1252,-2.0
1253,-1.0
1254,-1.0
1255,0.0
1256,0.0
1257,0.0
1258,-1.0
1259,-2.0
1260,-2.0
1261,-2.0
1262,-2.0
1263,-3.0
1264,-3.0
1265,-3.0
1266,-3.0
1267,-3.0
1268,-3.0
1269,1.0
1270,24.0
1271,72.0
1272,119.0
1273,124.0
1274,84.0
1275,38.0
1276,9.0
1277,0.0
1278,-5.0
1279,-7.0
1280,-87.0
1281,-101.0
1282,-90.0
1283,-91.0
1284,-92.0
1285,-88.0
1286,-92.0
1287,-90.0
1288,-98.0
1289,-89.0
1290,-106.0
1291,-84.0
1292,-102.0
1293,-87.0
1294,-106.0
1295,-91.0
1296,-108.0
1297,-89.0
1298,-114.0
1299,-83.0
1300,-114.0
1301,-92.0
1302,-119.0
1303,-94.0
1304,-120.0
1305,-93.0
1306,-107.0
1307,-89.0
1308,-91.0
1309,-74.0
1310,-79.0
1311,-70.0
1312,-61.0
1313,-67.0
1314,-81.0
1315,-98.0
1316,-90.0
1317,-109.0
1318,-107.0
1319,-137.0
1320,-113.0
1321,-145.0
1322,-104.0
1323,-129.0
1324,-105.0
1325,-123.0
1326,-114.0
1327,-156.0
1328,-50.0
1329,65.0
1330,212.0
1331,165.0
1332,-70.0
1333,-237.0
1334,-213.0
1335,-135.0
1336,-111.0
1337,-110.0
1338,-132.0
1339,-114.0
1340,-134.0
1341,-110.0
1342,-122.0
1343,-99.0
1344,-136.0
1345,-101.0
1346,-124.0
1347,-93.0
1348,-117.0
1349,-92.0
1350,-102.0
1351,-72.0
1352,-85.0
1353,-69.0
1354,-70.0
1355,-50.0
1356,-46.0
1357,-30.0
1358,-34.0
1359,-32.0
1360,-34.0
1361,-40.0
1362,-38.0
1363,-55.0
1364,-49.0
1365,-90.0
1366,-72.0
1367,-108.0
1368,-82.0
1369,-112.0
1370,-85.0
1371,-114.0
1372,-88.0
1373,-112.0
1374,-93.0
1375,-108.0
1376,-87.0
1377,-104.0
1378,-89.0
1379,-101.0
1380,-85.0
1381,-94.0
1382,-97.0
1383,-92.0
1384,-103.0
1385,-98.0
1386,-114.0
1387,-91.0
1388,-110.0
1389,-88.0
1390,-107.0
1391,-92.0
1392,-122.0
1393,-89.0
1394,-109.0
1395,-93.0
1396,-117.0
1397,-92.0
1398,-112.0
1399,-103.0
1400,-101.0
1401,-104.0
1402,-81.0
1403,-85.0
1404,-79.0
1405,-94.0
1406,-53.0
1407,-67.0
1408,-56.0
1409,-97.0
1410,-79.0
1411,-106.0
1412,-94.0
1413,-133.0
1414,-113.0
1415,-138.0
1416,-108.0
1417,-124.0
1418,-108.0
1419,-118.0
1420,-124.0
1421,-132.0
1422,-130.0
1423,-39.0
1424,98.0
1425,235.0
1426,102.0
1427,-122.0
1428,-269.0
1429,-169.0
1430,-142.0
1431,-98.0
1432,-132.0
1433,-104.0
1434,-131.0
1435,-113.0
1436,-129.0
1437,-110.0
1438,-117.0
1439,-107.0
1440,-107.0
1441,-101.0
1442,-96.0
1443,-96.0
1444,-90.0
1445,-102.0
1446,-81.0
1447,-101.0
1448,-68.0
1449,-83.0
1450,-48.0
1451,-69.0
1452,-45.0
1453,-62.0
1454,-32.0
1455,-45.0
1456,-39.0
1457,-57.0
1458,-67.0
1459,-71.0
1460,-83.0
1461,-77.0
1462,-105.0
1463,-93.0
1464,-118.0
1465,-105.0
1466,-123.0
1467,-104.0
1468,-119.0
1469,-98.0
1470,-121.0
1471,-106.0
1472,-115.0
1473,-97.0
1474,-107.0
1475,-97.0
1476,-103.0
1477,-100.0
1478,-98.0
1479,-103.0
1480,-98.0
1481,-107.0
1482,-93.0
1483,-110.0
1484,-92.0
1485,-108.0
1486,-89.0
1487,-114.0
1488,-90.0
1489,-112.0
1490,-90.0
1491,-121.0
1492,-85.0
1493,-111.0
1494,-85.0
1495,-107.0
1496,-92.0
1497,-90.0
1498,-72.0
1499,-77.0
1500,-80.0
1501,-55.0
1502,-58.0
1503,-66.0
1504,-90.0
1505,-77.0
1506,-100.0
1507,-100.0
1508,-132.0
1509,-113.0
1510,-137.0
1511,-108.0
1512,-131.0
1513,-105.0
1514,-123.0
1515,-98.0
1516,-131.0
1517,-119.0
1518,-22.0
1519,117.0
1520,236.0
1521,75.0
1522,-145.0
1523,-242.0
1524,-153.0
1525,-115.0
1526,-93.0
1527,-125.0
1528,-101.0
1529,-122.0
1530,-98.0
1531,-118.0
1532,-92.0
1533,-104.0
1534,-91.0
1535,-96.0
1536,-93.0
1537,-95.0
1538,-91.0
1539,-89.0
1540,-79.0
1541,-78.0
1542,-76.0
1543,-62.0
1544,-63.0
1545,-47.0
1546,-56.0
1547,-34.0
1548,-50.0
1549,-24.0
1550,-42.0
1551,-29.0
1552,-58.0
1553,-47.0
1554,-83.0
1555,-64.0
1556,-101.0
1557,-90.0
1558,-113.0
1559,-99.0
1560,-114.0
1561,-99.0
1562,-108.0
1563,-100.0
1564,-104.0
1565,-102.0
1566,-101.0
1567,-105.0
1568,-91.0
1569,-105.0
1570,-90.0
1571,-108.0
1572,-83.0
1573,-107.0
1574,-82.0
1575,-108.0
1576,-82.0
1577,-111.0
1578,-85.0
1579,-104.0
1580,-86.0
1581,-108.0
1582,-93.0
1583,-107.0
1584,-93.0
1585,-95.0
1586,-103.0
1587,-98.0
1588,-102.0
1589,-90.0
1590,-82.0
1591,-67.0
1592,-77.0
1593,-61.0
1594,-72.0
1595,-48.0
1596,-84.0
1597,-73.0
1598,-103.0
1599,-76.0
1600,-123.0
1601,-108.0
1602,-130.0
1603,-113.0
1604,-116.0
1605,-109.0
1606,-115.0
1607,-109.0
1608,-119.0
1609,-133.0
1610,-99.0
1611,8.0
1612,159.0
1613,219.0
1614,46.0
1615,-187.0
1616,-208.0
1617,-168.0
1618,-91.0
1619,-125.0
1620,-94.0
1621,-114.0
1622,-92.0
1623,-121.0
1624,-90.0
1625,-108.0
1626,-88.0
1627,-91.0
1628,-79.0
1629,-90.0
1630,-85.0
1631,-81.0
1632,-77.0
1633,-63.0
1634,-74.0
1635,-47.0
1636,-56.0
1637,-30.0
1638,-52.0
1639,-20.0
1640,-36.0
1641,-16.0
1642,-31.0
1643,-3.0
1644,-30.0
1645,-21.0
1646,-58.0
1647,-47.0
1648,-69.0
1649,-70.0
1650,-80.0
1651,-93.0
1652,-82.0
1653,-101.0
1654,-85.0
1655,-102.0
1656,-77.0
1657,-96.0
1658,-77.0
1659,-98.0
1660,-75.0
1661,-104.0
1662,-84.0
1663,-101.0
1664,-79.0
1665,-90.0
1666,-91.0
1667,-94.0
1668,-90.0
1669,-87.0
1670,-99.0
1671,-94.0
1672,-105.0
1673,-90.0
1674,-104.0
1675,-86.0
1676,-103.0
1677,-88.0
1678,-111.0
1679,-86.0
1680,-109.0
1681,-97.0
1682,-120.0
1683,-90.0
1684,-92.0
1685,-78.0
1686,-85.0
1687,-80.0
1688,-59.0
1689,-61.0
1690,-72.0
1691,-86.0
1692,-89.0
1693,-101.0
1694,-105.0
1695,-131.0
1696,-116.0
1697,-128.0
1698,-107.0
1699,-128.0
1700,-106.0
1701,-129.0
1702,-101.0
1703,-127.0
1704,-120.0
1705,-39.0
1706,103.0
1707,233.0
1708,119.0
1709,-117.0
1710,-248.0
1711,-171.0
1712,-127.0
1713,-88.0
1714,-124.0
1715,-101.0
1716,-127.0
1717,-101.0
1718,-108.0
1719,-96.0
1720,-109.0
1721,-101.0
1722,-107.0
1723,-94.0
1724,-88.0
1725,-92.0
1726,-79.0
1727,-92.0
1728,-68.0
1729,-88.0
1730,-61.0
1731,-76.0
1732,-33.0
1733,-56.0
1734,-32.0
1735,-46.0
1736,-29.0
1737,-35.0
1738,-26.0
1739,-38.0
1740,-42.0
1741,-61.0
1742,-71.0
1743,-71.0
1744,-91.0
1745,-83.0
1746,-105.0
1747,-90.0
1748,-110.0
1749,-75.0
1750,-109.0
1751,-85.0
1752,-105.0
1753,-83.0
1754,-100.0
1755,-90.0
1756,-98.0
1757,-88.0
1758,-87.0
1759,-87.0
1760,-81.0
1761,-99.0
1762,-83.0
1763,-98.0
1764,-78.0
1765,-108.0
1766,-77.0
1767,-105.0
1768,-80.0
1769,-103.0
1770,-93.0
1771,-102.0
1772,-92.0
1773,-100.0
1774,-96.0
1775,-101.0
1776,-107.0
1777,-91.0
1778,-101.0
1779,-78.0
1780,-86.0
1781,-61.0
1782,-76.0
1783,-57.0
1784,-67.0
1785,-44.0
1786,-79.0
1787,-78.0
1788,-100.0
1789,-96.0
1790,-118.0
1791,-114.0
1792,-121.0
1793,-121.0
1794,-113.0
1795,-120.0
1796,-108.0
1797,-122.0
1798,-113.0
1799,-149.0
1800,-84.0
1801,10.0
1802,175.0
1803,209.0
1804,5.0
1805,-201.0
1806,-205.0
1807,-163.0
1808,-99.0
1809,-124.0
1810,-110.0
1811,-124.0
1812,-102.0
1813,-123.0
1814,-109.0
1815,-107.0
1816,-110.0
1817,-97.0
1818,-109.0
1819,-87.0
1820,-109.0
1821,-82.0
1822,-100.0
1823,-76.0
1824,-89.0
1825,-61.0
1826,-75.0
1827,-53.0
1828,-65.0
1829,-42.0
1830,-61.0
1831,-38.0
1832,-47.0
1833,-34.0
1834,-50.0
1835,-58.0
1836,-62.0
1837,-84.0
1838,-85.0
1839,-98.0
1840,-94.0
1841,-108.0
1842,-96.0
1843,-116.0
1844,-100.0
1845,-117.0
1846,-100.0
1847,-120.0
1848,-92.0
1849,-118.0
1850,-93.0
1851,-110.0
1852,-97.0
1853,-108.0
1854,-97.0
1855,-101.0
1856,-91.0
1857,-95.0
1858,-89.0
1859,-97.0
1860,-105.0
1861,-101.0
1862,-103.0
1863,-93.0
1864,-112.0
1865,-94.0
1866,-114.0
1867,-90.0
1868,-110.0
1869,-83.0
1870,-110.0
1871,-88.0
1872,-111.0
1873,-82.0
1874,-90.0
1875,-67.0
1876,-74.0
1877,-52.0
1878,-56.0
1879,-54.0
1880,-80.0
1881,-74.0
1882,-93.0
1883,-98.0
1884,-110.0
1885,-120.0
1886,-106.0
1887,-117.0
1888,-107.0
1889,-113.0
1890,-97.0
1891,-115.0
1892,-108.0
1893,-123.0
1894,-7.0
1895,113.0
1896,245.0
1897,71.0
1898,-131.0
1899,-250.0
1900,-146.0
1901,-104.0
1902,-89.0
1903,-125.0
1904,-100.0
1905,-107.0
1906,-95.0
1907,-104.0
1908,-96.0
1909,-95.0
1910,-89.0
1911,-89.0
1912,-96.0
1913,-78.0
1914,-87.0
1915,-73.0
1916,-83.0
1917,-56.0
1918,-79.0
1919,-39.0
1920,-56.0
1921,-23.0
1922,-49.0
1923,-15.0
1924,-31.0
1925,-13.0
1926,-34.0
1927,-24.0
1928,-41.0
1929,-39.0
1930,-59.0
1931,-70.0
1932,-74.0
1933,-90.0
1934,-83.0
1935,-98.0
1936,-81.0
1937,-96.0
1938,-84.0
1939,-106.0
1940,-80.0
1941,-105.0
1942,-79.0
1943,-103.0
1944,-82.0
1945,-99.0
1946,-77.0
1947,-101.0
1948,-75.0
1949,-98.0
1950,-80.0
1951,-100.0
1952,-88.0
1953,-102.0
1954,-89.0
1955,-93.0
1956,-91.0
1957,-90.0
1958,-99.0
1959,-95.0
1960,-103.0
1961,-85.0
1962,-99.0
1963,-82.0
1964,-115.0
1965,-89.0
1966,-108.0
1967,-67.0
1968,-82.0
1969,-50.0
1970,-75.0
1971,-47.0
1972,-70.0
1973,-66.0
1974,-86.0
1975,-78.0
1976,-95.0
1977,-108.0
1978,-114.0
1979,-125.0
1980,-117.0
1981,-128.0
1982,-101.0
1983,-117.0
1984,-87.0
1985,-123.0
1986,-125.0
1987,-96.0
1988,68.0
1989,198.0
1990,205.0
1991,-68.0
1992,-217.0
1993,-197.0
1994,-117.0
1995,-109.0
1996,-108.0
1997,-116.0
1998,-105.0
1999,-110.0
2000,-104.0
2001,-93.0
2002,-101.0
2003,-87.0
2004,-102.0
2005,-85.0
2006,-93.0
2007,-69.0
2008,-84.0
2009,-59.0
2010,-79.0
2011,-46.0
2012,-66.0
2013,-37.0
2014,-43.0
2015,-25.0
2016,-38.0
2017,-13.0
2018,-15.0
2019,-10.0
2020,-22.0
2021,-37.0
2022,-32.0
2023,-45.0
2024,-50.0
2025,-75.0
2026,-68.0
2027,-91.0
2028,-76.0
2029,-107.0
2030,-77.0
2031,-95.0
2032,-77.0
2033,-98.0
2034,-73.0
2035,-91.0
2036,-81.0
2037,-85.0
2038,-78.0
2039,-80.0
2040,-80.0
2041,-74.0
2042,-88.0
2043,-77.0
2044,-86.0
2045,-60.0
2046,-91.0
2047,-65.0
2048,-95.0
2049,-64.0
2050,-96.0
2051,-81.0
2052,-97.0
2053,-73.0
2054,-86.0
2055,-87.0
2056,-87.0
2057,-95.0
2058,-92.0
2059,-91.0
2060,-75.0
2061,-91.0
2062,-71.0
2063,-89.0
2064,-58.0
2065,-73.0
2066,-51.0
2067,-58.0
2068,-42.0
2069,-74.0
2070,-68.0
2071,-85.0
2072,-91.0
2073,-110.0
2074,-114.0
2075,-112.0
2076,-115.0
2077,-110.0
2078,-114.0
2079,-102.0
2080,-115.0
2081,-99.0
2082,-138.0
2083,-69.0
2084,24.0
2085,192.0
2086,210.0
2087,-4.0
2088,-203.0
2089,-199.0
2090,-155.0
2091,-86.0
2092,-111.0
2093,-106.0
2094,-111.0
2095,-105.0
2096,-101.0
2097,-106.0
2098,-97.0
2099,-104.0
2100,-80.0
2101,-100.0
2102,-80.0
2103,-106.0
2104,-73.0
2105,-89.0
2106,-64.0
2107,-81.0
2108,-59.0
2109,-70.0
2110,-46.0
2111,-42.0
2112,-38.0
2113,-33.0
2114,-24.0
2115,-24.0
2116,-29.0
2117,-20.0
2118,-46.0
2119,-38.0
2120,-67.0
2121,-57.0
2122,-91.0
2123,-76.0
2124,-98.0
2125,-78.0
2126,-105.0
2127,-80.0
2128,-100.0
2129,-76.0
2130,-96.0
2131,-80.0
2132,-92.0
2133,-80.0
2134,-92.0
2135,-90.0
2136,-83.0
2137,-83.0
2138,-69.0
2139,-78.0
2140,-70.0
2141,-87.0
2142,-77.0
2143,-81.0
2144,-71.0
2145,-98.0
2146,-74.0
2147,-97.0
2148,-70.0
2149,-90.0
2150,-68.0
2151,-94.0
2152,-75.0
2153,-92.0
2154,-71.0
2155,-89.0
2156,-77.0
2157,-87.0
2158,-74.0
2159,-68.0
2160,-67.0
2161,-54.0
2162,-52.0
2163,-28.0
2164,-57.0
2165,-49.0
2166,-77.0
2167,-61.0
2168,-94.0
2169,-84.0
2170,-107.0
2171,-96.0
2172,-107.0
2173,-93.0
2174,-106.0
2175,-90.0
2176,-95.0
2177,-93.0
2178,-117.0
2179,-55.0
2180,77.0
2181,215.0
2182,219.0
2183,-46.0
2184,-195.0
2185,-192.0
2186,-107.0
2187,-93.0
2188,-82.0
2189,-105.0
2190,-82.0
2191,-98.0
2192,-73.0
2193,-91.0
2194,-74.0
2195,-90.0
2196,-77.0
2197,-89.0
2198,-72.0
2199,-77.0
2200,-76.0
2201,-72.0
2202,-66.0
2203,-54.0
2204,-59.0
2205,-37.0
2206,-40.0
2207,-16.0
2208,-27.0
2209,-12.0
2210,-25.0
2211,-6.0
2212,-29.0
2213,-11.0
2214,-46.0
2215,-36.0
2216,-69.0
2217,-58.0
2218,-83.0
2219,-73.0
2220,-83.0
2221,-84.0
2222,-78.0
2223,-87.0
2224,-82.0
2225,-94.0
2226,-73.0
2227,-95.0
2228,-72.0
2229,-98.0
2230,-72.0
2231,-91.0
2232,-70.0
2233,-96.0
2234,-79.0
2235,-87.0
2236,-73.0
2237,-79.0
2238,-75.0
2239,-76.0
2240,-93.0
2241,-83.0
2242,-86.0
2243,-84.0
2244,-94.0
2245,-74.0
2246,-96.0
2247,-75.0
2248,-101.0
2249,-79.0
2250,-95.0
2251,-76.0
2252,-94.0
2253,-75.0
2254,-84.0
2255,-59.0
2256,-74.0
2257,-50.0
2258,-50.0
2259,-35.0
2260,-55.0
2261,-55.0
2262,-75.0
2263,-70.0
2264,-85.0
2265,-99.0
2266,-95.0
2267,-105.0
2268,-89.0
2269,-104.0
2270,-75.0
2271,-99.0
2272,-79.0
2273,-114.0
2274,-100.0
2275,-28.0
2276,138.0
2277,243.0
2278,144.0
2279,-120.0
2280,-208.0
2281,-157.0
2282,-75.0
2283,-89.0
2284,-92.0
2285,-94.0
2286,-96.0
2287,-81.0
2288,-86.0
2289,-69.0
2290,-86.0
2291,-67.0
2292,-81.0
2293,-63.0
2294,-81.0
2295,-54.0
2296,-72.0
2297,-39.0
2298,-60.0
2299,-38.0
2300,-43.0
2301,-24.0
2302,-24.0
2303,-15.0
2304,-3.0
2305,-8.0
2306,4.0
2307,-5.0
2308,1.0
2309,-18.0
2310,-17.0
2311,-45.0
2312,-28.0
2313,-61.0
2314,-50.0
2315,-78.0
2316,-60.0
2317,-84.0
2318,-64.0
2319,-82.0
2320,-67.0
2321,-80.0
2322,-66.0
2323,-67.0
2324,-67.0
2325,-68.0
2326,-74.0
2327,-61.0
2328,-76.0
2329,-62.0
2330,-85.0
2331,-60.0
2332,-80.0
2333,-55.0
2334,-87.0
2335,-65.0
2336,-83.0
2337,-68.0
2338,-87.0
2339,-74.0
2340,-79.0
2341,-72.0
2342,-79.0
2343,-83.0
2344,-77.0
2345,-79.0
2346,-72.0
2347,-90.0
2348,-64.0
2349,-93.0
2350,-62.0
2351,-69.0
2352,-46.0
2353,-66.0
2354,-50.0
2355,-43.0
2356,-31.0
2357,-46.0
2358,-60.0
2359,-68.0
2360,-82.0
2361,-78.0
2362,-107.0
2363,-89.0
2364,-118.0
2365,-83.0
2366,-102.0
2367,-84.0
2368,-107.0
2369,-82.0
2370,-106.0
2371,-128.0
2372,-51.0
2373,90.0
2374,247.0
2375,160.0
2376,-78.0
2377,-220.0
2378,-155.0
2379,-104.0
2380,-71.0
2381,-111.0
2382,-84.0
2383,-107.0
2384,-81.0
2385,-100.0
2386,-75.0
2387,-88.0
2388,-69.0
2389,-89.0
2390,-69.0
2391,-89.0
2392,-61.0
2393,-61.0
2394,-58.0
2395,-61.0
2396,-55.0
2397,-38.0
2398,-42.0
2399,-24.0
2400,-27.0
2401,-4.0
2402,-18.0
2403,4.0
2404,-23.0
2405,0.0
2406,-24.0
2407,-10.0
2408,-56.0
2409,-41.0
2410,-72.0
2411,-51.0
2412,-83.0
2413,-67.0
2414,-86.0
2415,-80.0
2416,-86.0
2417,-75.0
2418,-67.0
2419,-74.0
2420,-63.0
2421,-79.0
2422,-69.0
2423,-79.0
2424,-49.0
2425,-82.0
2426,-58.0
2427,-82.0
2428,-58.0
2429,-82.0
2430,-63.0
2431,-81.0
2432,-60.0
2433,-84.0
2434,-76.0
2435,-80.0
2436,-71.0
2437,-71.0
2438,-84.0
2439,-70.0
2440,-84.0
2441,-68.0
2442,-88.0
2443,-69.0
2444,-93.0
2445,-68.0
2446,-67.0
2447,-43.0
2448,-67.0
2449,-40.0
2450,-50.0
2451,-22.0
2452,-48.0
2453,-51.0
2454,-79.0
2455,-65.0
2456,-86.0
2457,-98.0
2458,-102.0
2459,-98.0
2460,-98.0
2461,-96.0
2462,-87.0
2463,-95.0
2464,-91.0
2465,-130.0
2466,-95.0
2467,-12.0
2468,163.0
2469,248.0
2470,108.0
2471,-145.0
2472,-210.0
2473,-166.0
2474,-85.0
2475,-105.0
2476,-84.0
2477,-103.0
2478,-87.0
2479,-102.0
2480,-94.0
2481,-89.0
2482,-87.0
2483,-76.0
2484,-90.0
2485,-73.0
2486,-91.0
2487,-64.0
2488,-85.0
2489,-59.0
2490,-75.0
2491,-42.0
2492,-62.0
2493,-30.0
2494,-48.0
2495,-15.0
2496,-31.0
2497,-5.0
2498,-20.0
2499,-15.0
2500,-23.0
2501,-39.0
2502,-32.0
2503,-50.0
2504,-48.0
2505,-77.0
2506,-71.0
2507,-98.0
2508,-74.0
2509,-97.0
2510,-72.0
2511,-98.0
2512,-67.0
2513,-91.0
2514,-68.0
2515,-92.0
2516,-72.0
2517,-91.0
2518,-69.0
2519,-84.0
2520,-72.0
2521,-69.0
2522,-74.0
2523,-71.0
2524,-70.0
2525,-66.0
2526,-77.0
2527,-67.0
2528,-79.0
2529,-64.0
2530,-76.0
2531,-63.0
2532,-89.0
2533,-60.0
2534,-83.0
2535,-61.0
2536,-93.0
2537,-61.0
2538,-82.0
2539,-62.0
2540,-76.0
2541,-49.0
2542,-50.0
2543,-39.0
2544,-40.0
2545,-29.0
2546,-41.0
2547,-57.0
2548,-63.0
2549,-70.0
2550,-68.0
2551,-101.0
2552,-85.0
2553,-108.0
2554,-76.0
2555,-103.0
2556,-71.0
2557,-100.0
2558,-77.0
2559,-111.0
2560,-10.0
2561,-22.0
2562,4.0
2563,4.0
2564,-10.0
2565,-10.0
2566,-20.0
2567,-18.0
2568,-4.0
2569,-14.0
2570,-16.0
2571,-6.0
2572,-4.0
2573,-10.0
2574,-2.0
2575,12.0
2576,4.0
2577,-4.0
2578,-12.0
2579,-12.0
2580,-12.0
2581,6.0
2582,10.0
2583,20.0
2584,26.0
2585,2.0
2586,24.0
2587,20.0
2588,10.0
2589,12.0
2590,14.0
2591,-2.0
2592,6.0
2593,6.0
2594,12.0
2595,14.0
2596,-10.0
2597,-2.0
2598,-8.0
2599,0.0
2600,-6.0
2601,6.0
2602,-6.0
2603,0.0
2604,2.0
2605,-2.0
2606,-16.0
2607,8.0
2608,-2.0
2609,16.0
2610,56.0
2611,128.0
2612,304.0
2613,492.0
2614,508.0
2615,382.0
2616,194.0
2617,120.0
2618,-18.0
2619,-116.0
2620,-132.0
2621,-122.0
2622,-118.0
2623,-80.0
2624,-70.0
2625,-60.0
2626,-58.0
2627,-58.0
2628,-70.0
2629,-68.0
2630,-78.0
2631,-64.0
2632,-82.0
2633,-84.0
2634,-92.0
2635,-90.0
2636,-108.0
2637,-100.0
2638,-100.0
2639,-128.0
2640,-138.0
2641,-134.0
2642,-142.0
2643,-162.0
2644,-186.0
2645,-180.0
2646,-192.0
2647,-200.0
2648,-188.0
2649,-196.0
2650,-190.0
2651,-174.0
2652,-146.0
2653,-100.0
2654,-76.0
2655,-62.0
2656,-34.0
2657,-24.0
2658,-22.0
2659,-24.0
2660,-38.0
2661,-18.0
2662,-24.0
2663,-22.0
2664,-20.0
2665,-26.0
2666,-16.0
2667,-24.0
2668,-34.0
2669,-34.0
2670,-36.0
2671,-30.0
2672,-40.0
2673,-36.0
2674,-30.0
2675,-40.0
2676,-20.0
2677,-34.0
2678,-40.0
2679,-40.0
2680,-32.0
2681,-28.0
2682,-22.0
2683,-24.0
2684,-24.0
2685,-22.0
2686,-30.0
2687,-42.0
2688,-30.0
2689,-18.0
2690,-10.0
2691,-4.0
2692,10.0
2693,-18.0
2694,-4.0
2695,-2.0
2696,-24.0
2697,-12.0
2698,-16.0
2699,-30.0
2700,-26.0
2701,-14.0
2702,-24.0
2703,-24.0
2704,-16.0
2705,-28.0
2706,-28.0
2707,-32.0
2708,-24.0
2709,-22.0
2710,-22.0
2711,-24.0
2712,-8.0
2713,-16.0
2714,-16.0
2715,-30.0
2716,0.0
2717,60.0
2718,106.0
2719,332.0
2720,498.0
2721,496.0
2722,346.0
2723,180.0
2724,86.0
2725,-26.0
2726,-140.0
2727,-172.0
2728,-138.0
2729,-112.0
2730,-96.0
2731,-78.0
2732,-70.0
2733,-86.0
2734,-82.0
2735,-82.0
2736,-80.0
2737,-86.0
2738,-80.0
2739,-94.0
2740,-86.0
2741,-88.0
2742,-112.0
2743,-104.0
2744,-114.0
2745,-126.0
2746,-130.0
2747,-134.0
2748,-162.0
2749,-154.0
2750,-180.0
2751,-176.0
2752,-204.0
2753,-210.0
2754,-228.0
2755,-216.0
2756,-196.0
2757,-196.0
2758,-170.0
2759,-138.0
2760,-118.0
2761,-88.0
2762,-50.0
2763,-46.0
2764,-32.0
2765,-22.0
2766,-18.0
2767,-30.0
2768,-12.0
2769,-46.0
2770,-42.0
2771,-30.0
2772,-30.0
2773,-28.0
2774,-22.0
2775,-32.0
2776,-36.0
2777,-24.0
2778,-42.0
2779,-44.0
2780,-30.0
2781,-36.0
2782,-38.0
2783,-34.0
2784,-42.0
2785,-32.0
2786,-24.0
2787,-34.0
2788,-34.0
2789,-28.0
2790,-30.0
2791,-26.0
2792,-26.0
2793,-38.0
2794,-16.0
2795,-26.0
2796,-8.0
2797,-4.0
2798,-6.0
2799,-4.0
2800,2.0
2801,6.0
2802,-6.0
2803,4.0
2804,0.0
2805,-16.0
2806,-26.0
2807,-16.0
2808,-8.0
2809,-8.0
2810,-32.0
2811,-10.0
2812,-10.0
2813,-8.0
2814,-10.0
2815,-18.0
2816,0.0
2817,-12.0
2818,-6.0
2819,-6.0
2820,2.0
2821,2.0
2822,4.0
2823,28.0
2824,112.0
2825,230.0
2826,456.0
2827,530.0
2828,458.0
2829,254.0
2830,170.0
2831,16.0
2832,-98.0
2833,-124.0
2834,-122.0
2835,-108.0
2836,-76.0
2837,-62.0
2838,-48.0
2839,-56.0
2840,-44.0
2841,-44.0
2842,-64.0
2843,-58.0
2844,-70.0
2845,-64.0
2846,-60.0
2847,-64.0
2848,-70.0
2849,-68.0
2850,-82.0
2851,-78.0
2852,-94.0
2853,-110.0
2854,-114.0
2855,-116.0
2856,-130.0
2857,-140.0
2858,-148.0
2859,-164.0
2860,-156.0
2861,-174.0
2862,-174.0
2863,-158.0
2864,-142.0
2865,-110.0
2866,-72.0
2867,-36.0
2868,-6.0
2869,14.0
2870,14.0
2871,24.0
2872,32.0
2873,28.0
2874,30.0
2875,34.0
2876,42.0
2877,34.0
2878,36.0
2879,26.0
2880,30.0
2881,34.0
2882,26.0
2883,22.0
2884,30.0
2885,32.0
2886,12.0
2887,20.0
2888,26.0
2889,20.0
2890,20.0
2891,30.0
2892,26.0
2893,20.0
2894,28.0
2895,24.0
2896,40.0
2897,34.0
2898,18.0
2899,20.0
2900,16.0
2901,22.0
2902,36.0
2903,46.0
2904,48.0
2905,50.0
2906,56.0
2907,36.0
2908,58.0
2909,50.0
2910,44.0
2911,46.0
2912,48.0
2913,32.0
2914,32.0
2915,44.0
2916,38.0
2917,32.0
2918,34.0
2919,44.0
2920,28.0
2921,50.0
2922,46.0
2923,34.0
2924,58.0
2925,32.0
2926,26.0
2927,48.0
2928,34.0
2929,64.0
2930,46.0
2931,90.0
2932,150.0
2933,356.0
2934,524.0
2935,524.0
2936,392.0
2937,254.0
2938,164.0
2939,46.0
2940,-80.0
2941,-106.0
2942,-84.0
2943,-46.0
2944,-36.0
2945,-22.0
2946,-24.0
2947,-22.0
2948,-4.0
2949,-18.0
2950,-34.0
2951,-14.0
2952,-38.0
2953,-28.0
2954,-50.0
2955,-50.0
2956,-56.0
2957,-60.0
2958,-52.0
2959,-54.0
2960,-72.0
2961,-76.0
2962,-104.0
2963,-108.0
2964,-132.0
2965,-120.0
2966,-146.0
2967,-158.0
2968,-164.0
2969,-142.0
2970,-148.0
2971,-130.0
2972,-132.0
2973,-92.0
2974,-46.0
2975,-30.0
2976,-10.0
2977,22.0
2978,28.0
2979,28.0
2980,16.0
2981,38.0
2982,20.0
2983,26.0
2984,56.0
2985,44.0
2986,44.0
2987,20.0
2988,34.0
2989,24.0
2990,18.0
2991,18.0
2992,24.0
2993,20.0
2994,26.0
2995,24.0
2996,30.0
2997,28.0
2998,30.0
2999,20.0
3000,14.0
3001,48.0
3002,20.0
3003,34.0
3004,44.0
3005,46.0
3006,38.0
3007,32.0
3008,34.0
3009,40.0
3010,42.0
3011,46.0
3012,66.0
3013,62.0
3014,68.0
3015,62.0
3016,72.0
3017,70.0
3018,50.0
3019,40.0
3020,44.0
3021,54.0
3022,56.0
3023,56.0
3024,54.0
3025,42.0
3026,56.0
3027,48.0
3028,48.0
3029,54.0
3030,48.0
3031,60.0
3032,52.0
3033,58.0
3034,44.0
3035,42.0
3036,66.0
3037,30.0
3038,90.0
3039,172.0
3040,316.0
3041,532.0
3042,544.0
3043,424.0
3044,246.0
3045,198.0
3046,60.0
3047,-36.0
3048,-94.0
3049,-70.0
3050,-56.0
3051,-16.0
3052,-28.0
3053,6.0
3054,14.0
3055,-16.0
3056,-28.0
3057,4.0
3058,-8.0
3059,-6.0
3060,-12.0
3061,-18.0
3062,-36.0
3063,-18.0
3064,-36.0
3065,-20.0
3066,-42.0
3067,-68.0
3068,-44.0
3069,-70.0
3070,-58.0
3071,-84.0
3072,-112.0
3073,-100.0
3074,-120.0
3075,-112.0
3076,-144.0
3077,-110.0
3078,-94.0
3079,-120.0
3080,-84.0
3081,-6.0
3082,-4.0
3083,-18.0
3084,40.0
3085,50.0
3086,50.0
3087,72.0
3088,52.0
3089,58.0
3090,50.0
3091,40.0
3092,42.0
3093,50.0
3094,42.0
3095,8.0
3096,66.0
3097,64.0
3098,18.0
3099,72.0
3100,48.0
3101,30.0
3102,6.0
3103,56.0
3104,46.0
3105,56.0
3106,18.0
3107,56.0
3108,54.0
3109,44.0
3110,22.0
3111,38.0
3112,64.0
3113,56.0
3114,40.0
3115,58.0
3116,50.0
3117,62.0
3118,64.0
3119,76.0
3120,84.0
3121,58.0
3122,80.0
3123,74.0
3124,66.0
3125,98.0
3126,70.0
3127,60.0
3128,58.0
3129,82.0
3130,46.0
3131,60.0
3132,54.0
3133,40.0
3134,36.0
3135,74.0
3136,52.0
3137,36.0
3138,22.0
3139,34.0
3140,64.0
3141,36.0
3142,28.0
3143,52.0
3144,62.0
3145,46.0
3146,124.0
3147,182.0
3148,430.0
3149,552.0
3150,456.0
3151,294.0
3152,196.0
3153,84.0
3154,-34.0
3155,-72.0
3156,-86.0
3157,-62.0
3158,-44.0
3159,6.0
3160,-6.0
3161,-6.0
3162,16.0
3163,22.0
3164,0.0
3165,-4.0
3166,-8.0
3167,-24.0
3168,6.0
3169,-14.0
3170,-20.0
3171,-2.0
3172,-18.0
3173,-30.0
3174,-42.0
3175,-46.0
3176,-70.0
3177,-56.0
3178,-70.0
3179,-54.0
3180,-82.0
3181,-110.0
3182,-82.0
3183,-120.0
3184,-136.0
3185,-76.0
3186,-90.0
3187,-102.0
3188,-54.0
3189,-4.0
3190,4.0
3191,10.0
3192,28.0
3193,74.0
3194,58.0
3195,20.0
3196,28.0
3197,8.0
3198,44.0
3199,54.0
3200,58.0
3201,8.0
3202,16.0
3203,58.0
3204,-6.0
3205,-8.0
3206,26.0
3207,50.0
3208,16.0
3209,18.0
3210,58.0
3211,30.0
3212,12.0
3213,16.0
3214,18.0
3215,38.0
3216,40.0
3217,42.0
3218,18.0
3219,40.0
3220,38.0
3221,22.0
3222,6.0
3223,30.0
3224,54.0
3225,44.0
3226,44.0
3227,4.0
3228,68.0
3229,72.0
3230,54.0
3231,60.0
3232,16.0
3233,60.0
3234,48.0
3235,20.0
3236,36.0
3237,40.0
3238,22.0
3239,14.0
3240,30.0
3241,32.0
3242,4.0
3243,18.0
3244,44.0
3245,52.0
3246,36.0
3247,48.0
3248,14.0
3249,-2.0
3250,34.0
3251,46.0
3252,58.0
3253,52.0
3254,120.0
3255,172.0
3256,330.0
3257,474.0
3258,414.0
3259,292.0
3260,198.0
3261,78.0
3262,-24.0
3263,-84.0
3264,-100.0
3265,-78.0
3266,-46.0
3267,-24.0
3268,-10.0
3269,-8.0
3270,-6.0
3271,-4.0
3272,-30.0
3273,-10.0
3274,-12.0
3275,-38.0
3276,6.0
3277,-6.0
3278,-50.0
3279,-34.0
3280,-40.0
3281,-62.0
3282,-92.0
3283,-64.0
3284,-28.0
3285,-76.0
3286,-94.0
3287,-108.0
3288,-120.0
3289,-120.0
3290,-136.0
3291,-160.0
3292,-152.0
3293,-152.0
3294,-146.0
3295,-156.0
3296,-48.0
3297,-38.0
3298,-28.0
3299,-30.0
3300,22.0
3301,8.0
3302,14.0
3303,4.0
3304,-8.0
3305,12.0
3306,0.0
3307,22.0
3308,36.0
3309,2.0
3310,-6.0
3311,8.0
3312,16.0
3313,12.0
3314,-8.0
3315,-36.0
3316,-12.0
3317,30.0
3318,-30.0
3319,2.0
3320,-10.0
3321,-4.0
3322,2.0
3323,-26.0
3324,-8.0
3325,12.0
3326,-40.0
3327,-10.0
3328,38.0
3329,-4.0
3330,-32.0
3331,-42.0
3332,4.0
3333,-2.0
3334,-4.0
3335,8.0
3336,4.0
3337,34.0
3338,26.0
3339,10.0
3340,22.0
3341,-16.0
3342,14.0
3343,30.0
3344,4.0
3345,-10.0
3346,-4.0
3347,14.0
3348,-6.0
3349,-12.0
3350,-2.0
3351,12.0
3352,4.0
3353,4.0
3354,8.0
3355,16.0
3356,18.0
3357,2.0
3358,14.0
3359,0.0
3360,8.0
3361,10.0
3362,36.0
3363,124.0
3364,208.0
3365,422.0
3366,468.0
3367,342.0
3368,176.0
3369,88.0
3370,-14.0
3371,-128.0
3372,-136.0
3373,-112.0
3374,-108.0
3375,-76.0
3376,-54.0
3377,-62.0
3378,-64.0
3379,-48.0
3380,-82.0
3381,-84.0
3382,-64.0
3383,-56.0
3384,-70.0
3385,-76.0
3386,-90.0
3387,-116.0
3388,-102.0
3389,-94.0
3390,-92.0
3391,-124.0
3392,-130.0
3393,-138.0
3394,-130.0
3395,-146.0
3396,-172.0
3397,-192.0
3398,-176.0
3399,-198.0
3400,-196.0
3401,-180.0
3402,-200.0
3403,-168.0
3404,-150.0
3405,-126.0
3406,-92.0
3407,-80.0
3408,-60.0
3409,-64.0
3410,-34.0
3411,-22.0
3412,-30.0
3413,-36.0
3414,-40.0
3415,-50.0
3416,-70.0
3417,-54.0
3418,-50.0
3419,-66.0
3420,-44.0
3421,-60.0
3422,-58.0
3423,-84.0
3424,-84.0
3425,-72.0
3426,-74.0
3427,-68.0
3428,-88.0
3429,-62.0
3430,-60.0
3431,-82.0
3432,-66.0
3433,-78.0
3434,-72.0
3435,-84.0
3436,-68.0
3437,-48.0
3438,-110.0
3439,-42.0
3440,-70.0
3441,-76.0
3442,-68.0
3443,-46.0
3444,-50.0
3445,-46.0
3446,-44.0
3447,-34.0
3448,-40.0
3449,-48.0
3450,-56.0
3451,-74.0
3452,-90.0
3453,-54.0
3454,-40.0
3455,-60.0
3456,-60.0
3457,-46.0
3458,-62.0
3459,-76.0
3460,-72.0
3461,-66.0
3462,-66.0
3463,-66.0
3464,-38.0
3465,-72.0
3466,-46.0
3467,-56.0
3468,-58.0
3469,-52.0
3470,-20.0
3471,66.0
3472,220.0
3473,406.0
3474,412.0
3475,324.0
3476,142.0
3477,46.0
3478,-72.0
3479,-188.0
3480,-184.0
3481,-186.0
3482,-170.0
3483,-160.0
3484,-82.0
3485,-112.0
3486,-110.0
3487,-110.0
3488,-118.0
3489,-122.0
3490,-120.0
3491,-114.0
3492,-130.0
3493,-148.0
3494,-138.0
3495,-128.0
3496,-132.0
3497,-168.0
3498,-160.0
3499,-168.0
3500,-196.0
3501,-184.0
3502,-196.0
3503,-194.0
3504,-224.0
3505,-228.0
3506,-242.0
3507,-262.0
3508,-244.0
3509,-238.0
3510,-232.0
3511,-188.0
3512,-164.0
3513,-154.0
3514,-94.0
3515,-92.0
3516,-82.0
3517,-74.0
3518,-58.0
3519,-38.0
3520,-52.0
3521,-40.0
3522,-64.0
3523,-46.0
3524,-50.0
3525,-48.0
3526,-66.0
3527,-68.0
3528,-36.0
3529,-66.0
3530,-62.0
3531,-76.0
3532,-66.0
3533,-40.0
3534,-68.0
3535,-58.0
3536,-60.0
3537,-52.0
3538,-64.0
3539,-48.0
3540,-60.0
3541,-32.0
3542,-38.0
3543,-28.0
3544,-54.0
3545,-60.0
3546,-62.0
3547,-44.0
3548,-18.0
3549,-18.0
3550,-26.0
3551,-30.0
3552,-36.0
3553,-34.0
3554,-14.0
3555,-52.0
3556,-6.0
3557,-48.0
3558,-44.0
3559,-42.0
3560,-34.0
3561,-66.0
3562,-38.0
3563,-56.0
3564,-34.0
3565,-30.0
3566,-46.0
3567,-10.0
3568,-48.0
3569,-38.0
3570,-30.0
3571,-28.0
3572,-40.0
3573,-44.0
3574,-24.0
3575,16.0
3576,-16.0
3577,82.0
3578,176.0
3579,404.0
3580,508.0
3581,478.0
3582,290.0
3583,236.0
3584,96.0
3585,-84.0
3586,-110.0
3587,-150.0
3588,-116.0
3589,-98.0
3590,-66.0
3591,-90.0
3592,-60.0
3593,-80.0
3594,-70.0
3595,-76.0
3596,-84.0
3597,-82.0
3598,-64.0
3599,-84.0
3600,-92.0
3601,-98.0
3602,-112.0
3603,-84.0
3604,-136.0
3605,-102.0
3606,-142.0
3607,-134.0
3608,-130.0
3609,-154.0
3610,-162.0
3611,-170.0
3612,-194.0
3613,-194.0
3614,-178.0
3615,-174.0
3616,-196.0
3617,-162.0
3618,-122.0
3619,-106.0
3620,-56.0
3621,-34.0
3622,-50.0
3623,8.0
3624,4.0
3625,4.0
3626,-4.0
3627,-6.0
3628,6.0
3629,-26.0
3630,-6.0
3631,-10.0
3632,16.0
3633,-12.0
3634,-2.0
3635,-24.0
3636,-36.0
3637,-24.0
3638,-22.0
3639,-36.0
3640,-22.0
3641,-14.0
3642,-6.0
3643,-12.0
3644,-16.0
3645,-10.0
3646,-10.0
3647,-26.0
3648,-20.0
3649,18.0
3650,-14.0
3651,-28.0
3652,-6.0
3653,-6.0
3654,-14.0
3655,20.0
3656,28.0
3657,12.0
3658,18.0
3659,24.0
3660,18.0
3661,-18.0
3662,4.0
3663,16.0
3664,-4.0
3665,2.0
3666,0.0
3667,-10.0
3668,16.0
3669,-4.0
3670,0.0
3671,-2.0
3672,4.0
3673,-4.0
3674,-8.0
3675,10.0
3676,0.0
3677,-14.0
3678,24.0
3679,-2.0
3680,18.0
3681,-4.0
3682,30.0
3683,108.0
3684,196.0
3685,422.0
3686,518.0
3687,480.0
3688,294.0
3689,236.0
3690,126.0
3691,-32.0
3692,-104.0
3693,-124.0
3694,-110.0
3695,-64.0
3696,-44.0
3697,-54.0
3698,-50.0
3699,-30.0
3700,-32.0
3701,-44.0
3702,-62.0
3703,-42.0
3704,-56.0
3705,-50.0
3706,-52.0
3707,-70.0
3708,-62.0
3709,-74.0
3710,-72.0
3711,-88.0
3712,-100.0
3713,-88.0
3714,-106.0
3715,-122.0
3716,-134.0
3717,-104.0
3718,-140.0
3719,-164.0
3720,-152.0
3721,-184.0
3722,-132.0
3723,-130.0
3724,-94.0
3725,-76.0
3726,-46.0
3727,-20.0
3728,-4.0
3729,16.0
3730,8.0
3731,40.0
3732,18.0
3733,36.0
3734,30.0
3735,26.0
3736,0.0
3737,18.0
3738,24.0
3739,14.0
3740,0.0
3741,2.0
3742,16.0
3743,-18.0
3744,8.0
3745,18.0
3746,-22.0
3747,-8.0
3748,14.0
3749,-6.0
3750,-22.0
3751,8.0
3752,22.0
3753,14.0
3754,0.0
3755,12.0
3756,4.0
3757,12.0
3758,0.0
3759,-10.0
3760,14.0
3761,22.0
3762,20.0
3763,28.0
3764,58.0
3765,38.0
3766,24.0
3767,40.0
3768,50.0
3769,26.0
3770,40.0
3771,20.0
3772,16.0
3773,26.0
3774,22.0
3775,14.0
3776,0.0
3777,20.0
3778,32.0
3779,32.0
3780,14.0
3781,6.0
3782,26.0
3783,22.0
3784,4.0
3785,30.0
3786,32.0
3787,20.0
3788,-4.0
3789,74.0
3790,88.0
3791,150.0
3792,362.0
3793,504.0
3794,524.0
3795,344.0
3796,190.0
3797,100.0
3798,-2.0
3799,-108.0
3800,-108.0
3801,-98.0
3802,-58.0
3803,-44.0
3804,-20.0
3805,-18.0
3806,-14.0
3807,-32.0
3808,-22.0
3809,-42.0
3810,-46.0
3811,-34.0
3812,-32.0
3813,-44.0
3814,-44.0
3815,-50.0
3816,-46.0
3817,-62.0
3818,-40.0
3819,-74.0
3820,-82.0
3821,-102.0
3822,-86.0
3823,-110.0
3824,-132.0
3825,-144.0
3826,-122.0
3827,-132.0
3828,-156.0
3829,-148.0
3830,-136.0
3831,-116.0
3832,-90.0
3833,-30.0
3834,-14.0
3835,-8.0
3836,12.0
3837,38.0
3838,20.0
3839,32.0
3840,-5.0
3841,-4.0
3842,-1.0
3843,0.0
3844,6.0
3845,7.0
3846,8.0
3847,15.0
3848,13.0
3849,19.0
3850,29.0
3851,33.0
3852,36.0
3853,41.0
3854,44.0
3855,47.0
3856,44.0
3857,45.0
3858,36.0
3859,43.0
3860,34.0
3861,16.0
3862,12.0
3863,1.0
3864,-2.0
3865,-10.0
3866,-7.0
3867,-12.0
3868,-7.0
3869,-7.0
3870,-12.0
3871,-13.0
3872,-7.0
3873,-6.0
3874,-5.0
3875,-9.0
3876,-7.0
3877,-13.0
3878,-7.0
3879,-7.0
3880,-6.0
3881,-6.0
3882,-10.0
3883,-7.0
3884,-9.0
3885,0.0
3886,-2.0
3887,-7.0
3888,-11.0
3889,-11.0
3890,-8.0
3891,-4.0
3892,-8.0
3893,-9.0
3894,-10.0
3895,-7.0
3896,-9.0
3897,-10.0
3898,-7.0
3899,-8.0
3900,-8.0
3901,-12.0
3902,-6.0
3903,-8.0
3904,-4.0
3905,-9.0
3906,-10.0
3907,-8.0
3908,-10.0
3909,-5.0
3910,0.0
3911,10.0
3912,13.0
3913,16.0
3914,9.0
3915,8.0
3916,0.0
3917,8.0
3918,7.0
3919,2.0
3920,-8.0
3921,-16.0
3922,-19.0
3923,-20.0
3924,-11.0
3925,-15.0
3926,-17.0
3927,-21.0
3928,-17.0
3929,-5.0
3930,65.0
3931,156.0
3932,168.0
3933,64.0
3934,-29.0
3935,-47.0
3936,-27.0
3937,-20.0
3938,-11.0
3939,-18.0
3940,-18.0
3941,-13.0
3942,-12.0
3943,-16.0
3944,-16.0
3945,-6.0
3946,-9.0
3947,-8.0
3948,-10.0
3949,-5.0
3950,0.0
3951,-2.0
3952,4.0
3953,3.0
3954,9.0
3955,18.0
3956,12.0
3957,14.0
3958,22.0
3959,30.0
3960,35.0
3961,40.0
3962,44.0
3963,43.0
3964,44.0
3965,40.0
3966,42.0
3967,39.0
3968,26.0
3969,23.0
3970,12.0
3971,1.0
3972,-7.0
3973,-10.0
3974,-7.0
3975,-16.0
3976,-14.0
3977,-14.0
3978,-11.0
3979,-16.0
3980,-15.0
3981,-7.0
3982,-12.0
3983,-14.0
3984,-13.0
3985,-12.0
3986,-15.0
3987,-16.0
3988,-10.0
3989,-11.0
3990,-12.0
3991,-13.0
3992,-13.0
3993,-11.0
3994,-13.0
3995,-13.0
3996,-11.0
3997,-12.0
3998,-10.0
3999,-16.0
4000,-17.0
4001,-17.0
4002,-12.0
4003,-10.0
4004,-16.0
4005,-12.0
4006,-13.0
4007,-14.0
4008,-12.0
4009,-13.0
4010,-13.0
4011,-10.0
4012,-17.0
4013,-8.0
4014,-14.0
4015,-19.0
4016,-17.0
4017,-16.0
4018,-7.0
4019,-6.0
4020,-2.0
4021,0.0
4022,5.0
4023,2.0
4024,4.0
4025,6.0
4026,0.0
4027,-5.0
4028,-7.0
4029,-11.0
4030,-11.0
4031,-18.0
4032,-23.0
4033,-22.0
4034,-23.0
4035,-23.0
4036,-14.0
4037,-25.0
4038,-26.0
4039,-18.0
4040,82.0
4041,186.0
4042,172.0
4043,53.0
4044,-25.0
4045,-29.0
4046,-19.0
4047,-18.0
4048,-9.0
4049,-20.0
4050,-23.0
4051,-25.0
4052,-22.0
4053,-18.0
4054,-17.0
4055,-13.0
4056,-13.0
4057,-14.0
4058,-13.0
4059,-11.0
4060,-2.0
4061,-3.0
4062,0.0
4063,0.0
4064,1.0
4065,11.0
4066,11.0
4067,14.0
4068,18.0
4069,28.0
4070,36.0
4071,33.0
4072,36.0
4073,43.0
4074,46.0
4075,44.0
4076,33.0
4077,30.0
4078,21.0
4079,13.0
4080,4.0
4081,-2.0
4082,-6.0
4083,-12.0
4084,-10.0
4085,-14.0
4086,-20.0
4087,-22.0
4088,-20.0
4089,-14.0
4090,-22.0
4091,-19.0
4092,-16.0
4093,-18.0
4094,-12.0
4095,-10.0
4096,-17.0
4097,-19.0
4098,-16.0
4099,-13.0
4100,-14.0
4101,-18.0
4102,-17.0
4103,-16.0
4104,-18.0
4105,-18.0
4106,-15.0
4107,-12.0
4108,-13.0
4109,-13.0
4110,-20.0
4111,-18.0
4112,-22.0
4113,-19.0
4114,-13.0
4115,-19.0
4116,-9.0
4117,-20.0
4118,-17.0
4119,-18.0
4120,-16.0
4121,-9.0
4122,-15.0
4123,-18.0
4124,-17.0
4125,-15.0
4126,-18.0
4127,-19.0
4128,-13.0
4129,-6.0
4130,-2.0
4131,1.0
4132,0.0
4133,1.0
4134,0.0
4135,-1.0
4136,-2.0
4137,-5.0
4138,-6.0
4139,-9.0
4140,-16.0
4141,-22.0
4142,-27.0
4143,-19.0
4144,-21.0
4145,-23.0
4146,-16.0
4147,-26.0
4148,-31.0
4149,-10.0
4150,95.0
4151,188.0
4152,157.0
4153,37.0
4154,-35.0
4155,-30.0
4156,-17.0
4157,-18.0
4158,-20.0
4159,-21.0
4160,-24.0
4161,-22.0
4162,-23.0
4163,-19.0
4164,-20.0
4165,-12.0
4166,-10.0
4167,-15.0
4168,-13.0
4169,-12.0
4170,-9.0
4171,-6.0
4172,0.0
4173,3.0
4174,3.0
4175,7.0
4176,13.0
4177,21.0
4178,19.0
4179,28.0
4180,44.0
4181,29.0
4182,38.0
4183,38.0
4184,39.0
4185,39.0
4186,36.0
4187,34.0
4188,20.0
4189,11.0
4190,0.0
4191,-1.0
4192,-8.0
4193,-12.0
4194,-13.0
4195,-14.0
4196,-13.0
4197,-19.0
4198,-17.0
4199,-16.0
4200,-20.0
4201,-7.0
4202,-11.0
4203,-15.0
4204,-14.0
4205,-17.0
4206,-15.0
4207,-14.0
4208,-12.0
4209,-12.0
4210,-14.0
4211,-9.0
4212,-12.0
4213,-7.0
4214,-13.0
4215,-14.0
4216,-8.0
4217,-17.0
4218,-18.0
4219,-12.0
4220,-11.0
4221,-16.0
4222,-14.0
4223,-11.0
4224,-15.0
4225,-12.0
4226,-11.0
4227,-12.0
4228,-15.0
4229,-20.0
4230,-14.0
4231,-13.0
4232,-10.0
4233,-13.0
4234,-14.0
4235,-12.0
4236,-13.0
4237,-12.0
4238,-11.0
4239,-9.0
4240,-11.0
4241,-7.0
4242,-2.0
4243,1.0
4244,11.0
4245,2.0
4246,7.0
4247,2.0
4248,0.0
4249,0.0
4250,-1.0
4251,-5.0
4252,-13.0
4253,-16.0
4254,-19.0
4255,-22.0
4256,-25.0
4257,-17.0
4258,-19.0
4259,-25.0
4260,-24.0
4261,26.0
4262,137.0
4263,193.0
4264,119.0
4265,23.0
4266,-22.0
4267,-16.0
4268,-17.0
4269,-16.0
4270,-20.0
4271,-14.0
4272,-18.0
4273,-15.0
4274,-17.0
4275,-14.0
4276,-19.0
4277,-20.0
4278,-12.0
4279,-11.0
4280,-11.0
4281,-7.0
4282,-4.0
4283,0.0
4284,0.0
4285,4.0
4286,9.0
4287,9.0
4288,14.0
4289,19.0
4290,24.0
4291,29.0
4292,37.0
4293,40.0
4294,41.0
4295,47.0
4296,48.0
4297,41.0
4298,36.0
4299,35.0
4300,25.0
4301,12.0
4302,2.0
4303,0.0
4304,-8.0
4305,-9.0
4306,-9.0
4307,-16.0
4308,-14.0
4309,-12.0
4310,-17.0
4311,-20.0
4312,-13.0
4313,-15.0
4314,-18.0
4315,-15.0
4316,-14.0
4317,-14.0
4318,-18.0
4319,-13.0
4320,-7.0
4321,-16.0
4322,-13.0
4323,-10.0
4324,-16.0
4325,-17.0
4326,-13.0
4327,-12.0
4328,-12.0
4329,-11.0
4330,-17.0
4331,-17.0
4332,-12.0
4333,-11.0
4334,-15.0
4335,-11.0
4336,-17.0
4337,-16.0
4338,-17.0
4339,-15.0
4340,-7.0
4341,-15.0
4342,-14.0
4343,-11.0
4344,-14.0
4345,-12.0
4346,-13.0
4347,-13.0
4348,-12.0
4349,-13.0
4350,-14.0
4351,-18.0
4352,-14.0
4353,-5.0
4354,0.0
4355,-1.0
4356,2.0
4357,2.0
4358,6.0
4359,1.0
4360,-6.0
4361,0.0
4362,-1.0
4363,-9.0
4364,-14.0
4365,-20.0
4366,-22.0
4367,-26.0
4368,-19.0
4369,-17.0
4370,-16.0
4371,-28.0
4372,-27.0
4373,10.0
4374,111.0
4375,188.0
4376,138.0
4377,28.0
4378,-31.0
4379,-33.0
4380,-21.0
4381,-17.0
4382,-16.0
4383,-22.0
4384,-22.0
4385,-18.0
4386,-16.0
4387,-16.0
4388,-22.0
4389,-14.0
4390,-6.0
4391,-11.0
4392,-8.0
4393,-12.0
4394,-3.0
4395,-7.0
4396,0.0
4397,7.0
4398,2.0
4399,12.0
4400,13.0
4401,14.0
4402,22.0
4403,31.0
4404,37.0
4405,38.0
4406,44.0
4407,47.0
4408,45.0
4409,40.0
4410,40.0
4411,35.0
4412,27.0
4413,16.0
4414,2.0
4415,0.0
4416,-3.0
4417,-10.0
4418,-11.0
4419,-13.0
4420,-10.0
4421,-10.0
4422,-16.0
4423,-18.0
4424,-10.0
4425,-9.0
4426,-17.0
4427,-9.0
4428,-13.0
4429,-11.0
4430,-15.0
4431,-10.0
4432,-8.0
4433,-9.0
4434,-10.0
4435,-10.0
4436,-11.0
4437,-13.0
4438,-9.0
4439,-7.0
4440,-10.0
4441,-9.0
4442,-13.0
4443,-11.0
4444,-13.0
4445,-7.0
4446,-9.0
4447,-12.0
4448,-11.0
4449,-13.0
4450,-6.0
4451,-13.0
4452,-10.0
4453,-12.0
4454,-14.0
4455,-7.0
4456,-4.0
4457,-9.0
4458,-16.0
4459,-6.0
4460,-12.0
4461,0.0
4462,-8.0
4463,-9.0
4464,-10.0
4465,-8.0
4466,-3.0
4467,-1.0
4468,4.0
4469,10.0
4470,9.0
4471,5.0
4472,10.0
4473,8.0
4474,1.0
4475,3.0
4476,0.0
4477,0.0
4478,-14.0
4479,-14.0
4480,-20.0
4481,-14.0
4482,-16.0
4483,-17.0
4484,-17.0
4485,-22.0
4486,-14.0
4487,24.0
4488,119.0
4489,177.0
4490,115.0
4491,-1.0
4492,-44.0
4493,-30.0
4494,-21.0
4495,-19.0
4496,-15.0
4497,-13.0
4498,-18.0
4499,-10.0
4500,-12.0
4501,-5.0
4502,-10.0
4503,-9.0
4504,-1.0
4505,-11.0
4506,-1.0
4507,-1.0
4508,0.0
4509,3.0
4510,5.0
4511,9.0
4512,15.0
4513,20.0
4514,24.0
4515,28.0
4516,29.0
4517,37.0
4518,40.0
4519,48.0
4520,52.0
4521,53.0
4522,51.0
4523,52.0
4524,52.0
4525,39.0
4526,30.0
4527,21.0
4528,9.0
4529,5.0
4530,3.0
4531,-10.0
4532,-9.0
4533,-4.0
4534,-13.0
4535,-14.0
4536,-19.0
4537,-16.0
4538,-8.0
4539,-9.0
4540,-11.0
4541,-15.0
4542,-2.0
4543,-13.0
4544,-12.0
4545,-13.0
4546,-11.0
4547,-6.0
4548,-19.0
4549,-12.0
4550,-24.0
4551,-21.0
4552,-21.0
4553,4.0
4554,-12.0
4555,1.0
4556,-3.0
4557,2.0
4558,-1.0
4559,-29.0
4560,-27.0
4561,-12.0
4562,-8.0
4563,-19.0
4564,-19.0
4565,-17.0
4566,27.0
4567,0.0
4568,-23.0
4569,-18.0
4570,-21.0
4571,-12.0
4572,-31.0
4573,-2.0
4574,-14.0
4575,5.0
4576,-3.0
4577,-20.0
4578,-5.0
4579,6.0
4580,6.0
4581,7.0
4582,21.0
4583,7.0
4584,-4.0
4585,-10.0
4586,0.0
4587,9.0
4588,13.0
4589,-15.0
4590,-27.0
4591,-23.0
4592,-41.0
4593,-8.0
4594,-16.0
4595,-27.0
4596,-38.0
4597,-18.0
4598,22.0
4599,116.0
4600,197.0
4601,125.0
4602,3.0
4603,-31.0
4604,-25.0
4605,-38.0
4606,-27.0
4607,-17.0
4608,-16.0
4609,-19.0
4610,-20.0
4611,-28.0
4612,-29.0
4613,-16.0
4614,-14.0
4615,-16.0
4616,0.0
4617,-13.0
4618,-30.0
4619,-11.0
4620,-1.0
4621,-8.0
4622,2.0
4623,12.0
4624,9.0
4625,14.0
4626,13.0
4627,13.0
4628,17.0
4629,30.0
4630,47.0
4631,23.0
4632,34.0
4633,49.0
4634,29.0
4635,32.0
4636,33.0
4637,16.0
4638,12.0
4639,3.0
4640,0.0
4641,-14.0
4642,-20.0
4643,-25.0
4644,-18.0
4645,-12.0
4646,-16.0
4647,-12.0
4648,-24.0
4649,-22.0
4650,-22.0
4651,-21.0
4652,-8.0
4653,-17.0
4654,-22.0
4655,-6.0
4656,-19.0
4657,-28.0
4658,-14.0
4659,-16.0
4660,-13.0
4661,-4.0
4662,-16.0
4663,-24.0
4664,-7.0
4665,-9.0
4666,-21.0
4667,-15.0
4668,-13.0
4669,-13.0
4670,-11.0
4671,-12.0
4672,-15.0
4673,-20.0
4674,-15.0
4675,-7.0
4676,-14.0
4677,-12.0
4678,-11.0
4679,-23.0
4680,-27.0
4681,-8.0
4682,-28.0
4683,-10.0
4684,0.0
4685,-13.0
4686,-14.0
4687,-13.0
4688,-1.0
4689,-3.0
4690,4.0
4691,-2.0
4692,4.0
4693,5.0
4694,1.0
4695,-5.0
4696,-7.0
4697,0.0
4698,-4.0
4699,-29.0
4700,-21.0
4701,-29.0
4702,-24.0
4703,-32.0
4704,-18.0
4705,-17.0
4706,-29.0
4707,-4.0
4708,92.0
4709,174.0
4710,156.0
4711,18.0
4712,-47.0
4713,-43.0
4714,-30.0
4715,-25.0
4716,-24.0
4717,-22.0
4718,-22.0
4719,-30.0
4720,-22.0
4721,-23.0
4722,-18.0
4723,-15.0
4724,-20.0
4725,-15.0
4726,-8.0
4727,-14.0
4728,-9.0
4729,-5.0
4730,0.0
4731,-5.0
4732,-1.0
4733,3.0
4734,12.0
4735,14.0
4736,17.0
4737,29.0
4738,28.0
4739,35.0
4740,35.0
4741,34.0
4742,40.0
4743,35.0
4744,31.0
4745,29.0
4746,17.0
4747,11.0
4748,0.0
4749,-2.0
4750,-12.0
4751,-12.0
4752,-11.0
4753,-18.0
4754,-33.0
4755,-18.0
4756,-21.0
4757,-24.0
4758,-13.0
4759,-19.0
4760,-23.0
4761,-26.0
4762,-14.0
4763,-15.0
4764,-21.0
4765,-18.0
4766,-16.0
4767,-15.0
4768,-20.0
4769,-15.0
4770,-15.0
4771,-16.0
4772,-21.0
4773,-20.0
4774,-21.0
4775,-14.0
4776,-10.0
4777,-12.0
4778,-19.0
4779,-20.0
4780,-20.0
4781,-25.0
4782,-20.0
4783,-16.0
4784,-18.0
4785,-16.0
4786,-21.0
4787,-16.0
4788,-13.0
4789,-22.0
4790,-18.0
4791,-17.0
4792,-21.0
4793,-21.0
4794,-20.0
4795,-17.0
4796,-19.0
4797,-10.0
4798,-13.0
4799,-15.0
4800,-4.0
4801,-3.0
4802,7.0
4803,5.0
4804,-6.0
4805,-5.0
4806,-2.0
4807,-1.0
4808,0.0
4809,-18.0
4810,0.0
4811,-21.0
4812,-30.0
4813,-23.0
4814,-32.0
4815,-23.0
4816,-25.0
4817,-25.0
4818,-25.0
4819,5.0
4820,84.0
4821,159.0
4822,131.0
4823,28.0
4824,-45.0
4825,-55.0
4826,-27.0
4827,-17.0
4828,-30.0
4829,-25.0
4830,-17.0
4831,-26.0
4832,-26.0
4833,-19.0
4834,-17.0
4835,-14.0
4836,-17.0
4837,-13.0
4838,-3.0
4839,-1.0
4840,-7.0
4841,1.0
4842,8.0
4843,8.0
4844,0.0
4845,8.0
4846,13.0
4847,18.0
4848,26.0
4849,31.0
4850,34.0
4851,43.0
4852,42.0
4853,39.0
4854,48.0
4855,49.0
4856,39.0
4857,33.0
4858,25.0
4859,19.0
4860,15.0
4861,5.0
4862,-1.0
4863,-8.0
4864,-13.0
4865,-12.0
4866,-10.0
4867,-18.0
4868,-7.0
4869,-12.0
4870,-13.0
4871,-10.0
4872,-15.0
4873,-10.0
4874,0.0
4875,-15.0
4876,-14.0
4877,-17.0
4878,-16.0
4879,-16.0
4880,-10.0
4881,-18.0
4882,-16.0
4883,-14.0
4884,-8.0
4885,-6.0
4886,-19.0
4887,-16.0
4888,-18.0
4889,-23.0
4890,-25.0
4891,-22.0
4892,-10.0
4893,-23.0
4894,-17.0
4895,-11.0
4896,-18.0
4897,-19.0
4898,-24.0
4899,-25.0
4900,-19.0
4901,-20.0
4902,-21.0
4903,-16.0
4904,-17.0
4905,-21.0
4906,-24.0
4907,-29.0
4908,-16.0
4909,-14.0
4910,-15.0
4911,-5.0
4912,-2.0
4913,-14.0
4914,-15.0
4915,0.0
4916,-2.0
4917,-10.0
4918,-15.0
4919,-16.0
4920,-20.0
4921,-27.0
4922,-21.0
4923,-32.0
4924,-34.0
4925,-25.0
4926,-26.0
4927,-32.0
4928,-40.0
4929,-34.0
4930,33.0
4931,152.0
4932,213.0
4933,122.0
4934,12.0
4935,-28.0
4936,-14.0
4937,-23.0
4938,-17.0
4939,-20.0
4940,-29.0
4941,-26.0
4942,-26.0
4943,-18.0
4944,-21.0
4945,-19.0
4946,-12.0
4947,-17.0
4948,-12.0
4949,-8.0
4950,-6.0
4951,-5.0
4952,2.0
4953,-8.0
4954,2.0
4955,8.0
4956,12.0
4957,14.0
4958,19.0
4959,25.0
4960,32.0
4961,31.0
4962,41.0
4963,46.0
4964,37.0
4965,36.0
4966,34.0
4967,39.0
4968,19.0
4969,6.0
4970,6.0
4971,0.0
4972,-2.0
4973,-7.0
4974,-10.0
4975,-22.0
4976,-12.0
4977,-6.0
4978,-21.0
4979,-26.0
4980,-23.0
4981,-20.0
4982,-22.0
4983,-11.0
4984,-18.0
4985,-18.0
4986,-15.0
4987,-19.0
4988,-16.0
4989,-15.0
4990,-3.0
4991,-18.0
4992,-14.0
4993,-18.0
4994,-12.0
4995,-26.0
4996,-19.0
4997,-17.0
4998,-14.0
4999,-12.0
5000,-26.0
5001,0.0
5002,-21.0
5003,-28.0
5004,-15.0
5005,-17.0
5006,-17.0
5007,-18.0
5008,-16.0
5009,-19.0
5010,-16.0
5011,-20.0
5012,-24.0
5013,-23.0
5014,-20.0
5015,-19.0
5016,-10.0
5017,-1.0
5018,-4.0
5019,-5.0
5020,2.0
5021,4.0
5022,-10.0
5023,-7.0
5024,-3.0
5025,-9.0
5026,-10.0
5027,-25.0
5028,-31.0
5029,-34.0
5030,-26.0
5031,-30.0
5032,-22.0
5033,-20.0
5034,-31.0
5035,-24.0
5036,55.0
5037,163.0
5038,199.0
5039,100.0
5040,-16.0
5041,-19.0
5042,-16.0
5043,-20.0
5044,-14.0
5045,-26.0
5046,-25.0
5047,-20.0
5048,-25.0
5049,-21.0
5050,-17.0
5051,-16.0
5052,-19.0
5053,-24.0
5054,-6.0
5055,-9.0
5056,-10.0
5057,-10.0
5058,-5.0
5059,-1.0
5060,0.0
5061,11.0
5062,16.0
5063,16.0
5064,21.0
5065,22.0
5066,36.0
5067,34.0
5068,37.0
5069,50.0
5070,38.0
5071,46.0
5072,44.0
5073,36.0
5074,25.0
5075,22.0
5076,9.0
5077,1.0
5078,-7.0
5079,-8.0
5080,-16.0
5081,-7.0
5082,-19.0
5083,-24.0
5084,-22.0
5085,-20.0
5086,-14.0
5087,-19.0
5088,-15.0
5089,-19.0
5090,-9.0
5091,-13.0
5092,-24.0
5093,-21.0
5094,-13.0
5095,-13.0
5096,-15.0
5097,-19.0
5098,-12.0
5099,-11.0
5100,-13.0
5101,-6.0
5102,-19.0
5103,-22.0
5104,-20.0
5105,-21.0
5106,-20.0
5107,-12.0
5108,-15.0
5109,-19.0
5110,-18.0
5111,-11.0
5112,-10.0
5113,-14.0
5114,-14.0
5115,-20.0
5116,-21.0
5117,-17.0
5118,-21.0
5119,-24.0
5120,-2.0
5121,-14.0
5122,-15.0
5123,-24.0
5124,-26.0
5125,-32.0
5126,-30.0
5127,-34.0
5128,-33.0
5129,-31.0
5130,-33.0
5131,-35.0
5132,-35.0
5133,-34.0
5134,-34.0
5135,-33.0
5136,-31.0
5137,-27.0
5138,-30.0
5139,-27.0
5140,-31.0
5141,-27.0
5142,-28.0
5143,-22.0
5144,-22.0
5145,-24.0
5146,-21.0
5147,-23.0
5148,-21.0
5149,-25.0
5150,-23.0
5151,-23.0
5152,-26.0
5153,-27.0
5154,-26.0
5155,-24.0
5156,-22.0
5157,-20.0
5158,-13.0
5159,-14.0
5160,-17.0
5161,-18.0
5162,-23.0
5163,-23.0
5164,-26.0
5165,-22.0
5166,-25.0
5167,-22.0
5168,-24.0
5169,-31.0
5170,-34.0
5171,-35.0
5172,-33.0
5173,-31.0
5174,-32.0
5175,-30.0
5176,-35.0
5177,-21.0
5178,61.0
5179,187.0
5180,272.0
5181,199.0
5182,-24.0
5183,-124.0
5184,-127.0
5185,-82.0
5186,-51.0
5187,-37.0
5188,-38.0
5189,-36.0
5190,-35.0
5191,-33.0
5192,-34.0
5193,-28.0
5194,-26.0
5195,-27.0
5196,-25.0
5197,-22.0
5198,-18.0
5199,-15.0
5200,-13.0
5201,-3.0
5202,1.0
5203,3.0
5204,12.0
5205,15.0
5206,26.0
5207,33.0
5208,47.0
5209,55.0
5210,60.0
5211,65.0
5212,65.0
5213,71.0
5214,64.0
5215,61.0
5216,55.0
5217,42.0
5218,31.0
5219,18.0
5220,7.0
5221,-3.0
5222,-12.0
5223,-16.0
5224,-24.0
5225,-26.0
5226,-31.0
5227,-32.0
5228,-31.0
5229,-35.0
5230,-30.0
5231,-31.0
5232,-32.0
5233,-32.0
5234,-33.0
5235,-31.0
5236,-34.0
5237,-28.0
5238,-28.0
5239,-26.0
5240,-26.0
5241,-26.0
5242,-27.0
5243,-26.0
5244,-23.0
5245,-21.0
5246,-23.0
5247,-22.0
5248,-24.0
5249,-24.0
5250,-27.0
5251,-25.0
5252,-25.0
5253,-26.0
5254,-27.0
5255,-26.0
5256,-22.0
5257,-24.0
5258,-14.0
5259,-13.0
5260,-15.0
5261,-16.0
5262,-18.0
5263,-18.0
5264,-22.0
5265,-20.0
5266,-20.0
5267,-24.0
5268,-24.0
5269,-23.0
5270,-28.0
5271,-34.0
5272,-32.0
5273,-32.0
5274,-32.0
5275,-27.0
5276,-28.0
5277,-33.0
5278,-34.0
5279,40.0
5280,174.0
5281,279.0
5282,211.0
5283,-10.0
5284,-113.0
5285,-121.0
5286,-77.0
5287,-48.0
5288,-38.0
5289,-35.0
5290,-33.0
5291,-33.0
5292,-32.0
5293,-27.0
5294,-24.0
5295,-26.0
5296,-21.0
5297,-21.0
5298,-15.0
5299,-16.0
5300,-10.0
5301,-5.0
5302,-3.0
5303,2.0
5304,5.0
5305,14.0
5306,17.0
5307,33.0
5308,38.0
5309,50.0
5310,56.0
5311,64.0
5312,66.0
5313,66.0
5314,73.0
5315,67.0
5316,64.0
5317,55.0
5318,46.0
5319,33.0
5320,24.0
5321,15.0
5322,1.0
5323,-8.0
5324,-15.0
5325,-22.0
5326,-26.0
5327,-28.0
5328,-25.0
5329,-32.0
5330,-31.0
5331,-34.0
5332,-28.0
5333,-36.0
5334,-27.0
5335,-31.0
5336,-30.0
5337,-27.0
5338,-28.0
5339,-30.0
5340,-27.0
5341,-24.0
5342,-24.0
5343,-24.0
5344,-25.0
5345,-24.0
5346,-25.0
5347,-23.0
5348,-23.0
5349,-25.0
5350,-24.0
5351,-26.0
5352,-27.0
5353,-30.0
5354,-27.0
5355,-25.0
5356,-25.0
5357,-21.0
5358,-21.0
5359,-18.0
5360,-22.0
5361,-15.0
5362,-20.0
5363,-18.0
5364,-25.0
5365,-23.0
5366,-28.0
5367,-24.0
5368,-22.0
5369,-24.0
5370,-33.0
5371,-36.0
5372,-34.0
5373,-40.0
5374,-35.0
5375,-32.0
5376,-28.0
5377,-35.0
5378,-32.0
5379,17.0
5380,121.0
5381,242.0
5382,254.0
5383,76.0
5384,-101.0
5385,-132.0
5386,-120.0
5387,-67.0
5388,-44.0
5389,-38.0
5390,-37.0
5391,-38.0
5392,-33.0
5393,-32.0
5394,-26.0
5395,-27.0
5396,-23.0
5397,-20.0
5398,-20.0
5399,-20.0
5400,-15.0
5401,-11.0
5402,-3.0
5403,-1.0
5404,3.0
5405,8.0
5406,18.0
5407,20.0
5408,32.0
5409,38.0
5410,52.0
5411,50.0
5412,61.0
5413,57.0
5414,61.0
5415,67.0
5416,55.0
5417,50.0
5418,44.0
5419,36.0
5420,18.0
5421,10.0
5422,2.0
5423,-8.0
5424,-15.0
5425,-22.0
5426,-30.0
5427,-31.0
5428,-34.0
5429,-33.0
5430,-42.0
5431,-40.0
5432,-35.0
5433,-40.0
5434,-46.0
5435,-42.0
5436,-37.0
5437,-47.0
5438,-36.0
5439,-43.0
5440,-36.0
5441,-35.0
5442,-37.0
5443,-32.0
5444,-32.0
5445,-33.0
5446,-34.0
5447,-30.0
5448,-36.0
5449,-31.0
5450,-34.0
5451,-36.0
5452,-35.0
5453,-35.0
5454,-40.0
5455,-38.0
5456,-33.0
5457,-33.0
5458,-31.0
5459,-26.0
5460,-30.0
5461,-33.0
5462,-32.0
5463,-26.0
5464,-34.0
5465,-33.0
5466,-34.0
5467,-38.0
5468,-38.0
5469,-41.0
5470,-45.0
5471,-50.0
5472,-47.0
5473,-50.0
5474,-53.0
5475,-45.0
5476,-45.0
5477,-56.0
5478,-37.0
5479,42.0
5480,171.0
5481,269.0
5482,219.0
5483,-1.0
5484,-121.0
5485,-136.0
5486,-112.0
5487,-73.0
5488,-57.0
5489,-53.0
5490,-57.0
5491,-52.0
5492,-48.0
5493,-48.0
5494,-43.0
5495,-45.0
5496,-40.0
5497,-41.0
5498,-38.0
5499,-31.0
5500,-30.0
5501,-25.0
5502,-22.0
5503,-17.0
5504,-11.0
5505,-3.0
5506,4.0
5507,11.0
5508,22.0
5509,32.0
5510,38.0
5511,46.0
5512,52.0
5513,53.0
5514,57.0
5515,52.0
5516,48.0
5517,36.0
5518,26.0
5519,17.0
5520,3.0
5521,-6.0
5522,-14.0
5523,-23.0
5524,-37.0
5525,-28.0
5526,-35.0
5527,-41.0
5528,-41.0
5529,-45.0
5530,-48.0
5531,-47.0
5532,-46.0
5533,-50.0
5534,-51.0
5535,-60.0
5536,-72.0
5537,-75.0
5538,-60.0
5539,-50.0
5540,-50.0
5541,-45.0
5542,-46.0
5543,-33.0
5544,-33.0
5545,-40.0
5546,-36.0
5547,-34.0
5548,-40.0
5549,-40.0
5550,-38.0
5551,-40.0
5552,-42.0
5553,-41.0
5554,-46.0
5555,-45.0
5556,-41.0
5557,-38.0
5558,-27.0
5559,-27.0
5560,-36.0
5561,-37.0
5562,-36.0
5563,-38.0
5564,-42.0
5565,-38.0
5566,-41.0
5567,-45.0
5568,-44.0
5569,-47.0
5570,-56.0
5571,-56.0
5572,-56.0
5573,-51.0
5574,-48.0
5575,-51.0
5576,-57.0
5577,-60.0
5578,-5.0
5579,120.0
5580,249.0
5581,280.0
5582,101.0
5583,-87.0
5584,-132.0
5585,-131.0
5586,-93.0
5587,-72.0
5588,-58.0
5589,-63.0
5590,-57.0
5591,-62.0
5592,-57.0
5593,-56.0
5594,-56.0
5595,-46.0
5596,-44.0
5597,-47.0
5598,-47.0
5599,-41.0
5600,-35.0
5601,-38.0
5602,-26.0
5603,-22.0
5604,-15.0
5605,-6.0
5606,0.0
5607,10.0
5608,22.0
5609,25.0
5610,34.0
5611,37.0
5612,42.0
5613,46.0
5614,40.0
5615,41.0
5616,28.0
5617,26.0
5618,20.0
5619,2.0
5620,-8.0
5621,-18.0
5622,-27.0
5623,-32.0
5624,-38.0
5625,-45.0
5626,-47.0
5627,-48.0
5628,-51.0
5629,-53.0
5630,-54.0
5631,-57.0
5632,-53.0
5633,-46.0
5634,-50.0
5635,-50.0
5636,-52.0
5637,-52.0
5638,-45.0
5639,-45.0
5640,-41.0
5641,-41.0
5642,-33.0
5643,-36.0
5644,-34.0
5645,-30.0
5646,-35.0
5647,-26.0
5648,-27.0
5649,-37.0
5650,-38.0
5651,-33.0
5652,-35.0
5653,-34.0
5654,-33.0
5655,-28.0
5656,-24.0
5657,-23.0
5658,-13.0
5659,-4.0
5660,-17.0
5661,-24.0
5662,-10.0
5663,-23.0
5664,-25.0
5665,-25.0
5666,-27.0
5667,-25.0
5668,-37.0
5669,-32.0
5670,-30.0
5671,-37.0
5672,-28.0
5673,-25.0
5674,-21.0
5675,-50.0
5676,-16.0
5677,82.0
5678,210.0
5679,312.0
5680,191.0
5681,2.0
5682,-90.0
5683,-98.0
5684,-72.0
5685,-42.0
5686,-23.0
5687,-23.0
5688,-27.0
5689,-21.0
5690,-21.0
5691,-20.0
5692,-21.0
5693,-15.0
5694,-12.0
5695,-4.0
5696,-4.0
5697,-3.0
5698,2.0
5699,2.0
5700,11.0
5701,23.0
5702,26.0
5703,36.0
5704,36.0
5705,44.0
5706,60.0
5707,80.0
5708,72.0
5709,83.0
5710,88.0
5711,90.0
5712,87.0
5713,78.0
5714,84.0
5715,73.0
5716,60.0
5717,48.0
5718,42.0
5719,36.0
5720,27.0
5721,14.0
5722,5.0
5723,2.0
5724,2.0
5725,-3.0
5726,-2.0
5727,2.0
5728,1.0
5729,-3.0
5730,-1.0
5731,0.0
5732,-6.0
5733,2.0
5734,0.0
5735,-7.0
5736,-10.0
5737,7.0
5738,1.0
5739,10.0
5740,4.0
5741,1.0
5742,12.0
5743,8.0
5744,10.0
5745,3.0
5746,4.0
5747,18.0
5748,4.0
5749,-2.0
5750,10.0
5751,1.0
5752,10.0
5753,14.0
5754,6.0
5755,8.0
5756,10.0
5757,17.0
5758,8.0
5759,8.0
5760,14.0
5761,8.0
5762,11.0
5763,7.0
5764,-1.0
5765,-3.0
5766,-3.0
5767,-1.0
5768,-5.0
5769,-7.0
5770,2.0
5771,0.0
5772,-4.0
5773,-5.0
5774,60.0
5775,186.0
5776,315.0
5777,338.0
5778,64.0
5779,-51.0
5780,-87.0
5781,-74.0
5782,-38.0
5783,-18.0
5784,-15.0
5785,-12.0
5786,-10.0
5787,-6.0
5788,-8.0
5789,-12.0
5790,-4.0
5791,-4.0
5792,-2.0
5793,0.0
5794,2.0
5795,5.0
5796,11.0
5797,13.0
5798,21.0
5799,27.0
5800,36.0
5801,35.0
5802,40.0
5803,48.0
5804,60.0
5805,71.0
5806,75.0
5807,77.0
5808,78.0
5809,76.0
5810,75.0
5811,82.0
5812,58.0
5813,55.0
5814,46.0
5815,34.0
5816,23.0
5817,17.0
5818,14.0
5819,3.0
5820,-11.0
5821,-7.0
5822,-15.0
5823,-13.0
5824,-14.0
5825,-17.0
5826,-20.0
5827,-18.0
5828,-20.0
5829,-14.0
5830,-14.0
5831,-15.0
5832,-15.0
5833,-14.0
5834,-15.0
5835,-12.0
5836,-5.0
5837,-3.0
5838,-2.0
5839,-3.0
5840,-4.0
5841,-8.0
5842,0.0
5843,-1.0
5844,-5.0
5845,-3.0
5846,-1.0
5847,-10.0
5848,-7.0
5849,0.0
5850,-2.0
5851,-3.0
5852,-2.0
5853,-3.0
5854,-3.0
5855,0.0
5856,-3.0
5857,-8.0
5858,-3.0
5859,-11.0
5860,-10.0
5861,-13.0
5862,-3.0
5863,-27.0
5864,-17.0
5865,-27.0
5866,-25.0
5867,-27.0
5868,-22.0
5869,-12.0
5870,-40.0
5871,-23.0
5872,66.0
5873,201.0
5874,314.0
5875,265.0
5876,71.0
5877,-76.0
5878,-103.0
5879,-88.0
5880,-57.0
5881,-51.0
5882,-34.0
5883,-32.0
5884,-30.0
5885,-33.0
5886,-26.0
5887,-25.0
5888,-28.0
5889,-25.0
5890,-25.0
5891,-20.0
5892,-17.0
5893,-12.0
5894,-11.0
5895,-8.0
5896,-4.0
5897,3.0
5898,14.0
5899,20.0
5900,18.0
5901,31.0
5902,42.0
5903,56.0
5904,61.0
5905,65.0
5906,58.0
5907,65.0
5908,54.0
5909,64.0
5910,44.0
5911,36.0
5912,32.0
5913,20.0
5914,10.0
5915,-2.0
5916,-8.0
5917,-14.0
5918,-17.0
5919,-22.0
5920,-27.0
5921,-31.0
5922,-28.0
5923,-35.0
5924,-33.0
5925,-33.0
5926,-30.0
5927,-30.0
5928,-26.0
5929,-35.0
5930,-26.0
5931,-28.0
5932,-27.0
5933,-23.0
5934,-24.0
5935,-21.0
5936,-30.0
5937,-18.0
5938,-26.0
5939,-20.0
5940,-16.0
5941,-15.0
5942,-20.0
5943,-17.0
5944,-16.0
5945,-20.0
5946,-21.0
5947,-17.0
5948,-16.0
5949,-16.0
5950,-16.0
5951,-13.0
5952,-7.0
5953,-10.0
5954,-14.0
5955,-16.0
5956,-10.0
5957,-17.0
5958,-13.0
5959,-12.0
5960,-15.0
5961,-17.0
5962,-25.0
5963,-28.0
5964,-28.0
5965,-18.0
5966,-18.0
5967,-16.0
5968,-28.0
5969,-27.0
5970,34.0
5971,163.0
5972,294.0
5973,336.0
5974,171.0
5975,-22.0
5976,-94.0
5977,-102.0
5978,-67.0
5979,-38.0
5980,-33.0
5981,-27.0
5982,-25.0
5983,-25.0
5984,-21.0
5985,-21.0
5986,-21.0
5987,-18.0
5988,-12.0
5989,-11.0
5990,-6.0
5991,-6.0
5992,-1.0
5993,5.0
5994,5.0
5995,11.0
5996,16.0
5997,28.0
5998,33.0
5999,38.0
6000,51.0
6001,60.0
6002,67.0
6003,73.0
6004,77.0
6005,78.0
6006,77.0
6007,67.0
6008,64.0
6009,53.0
6010,42.0
6011,31.0
6012,18.0
6013,12.0
6014,0.0
6015,-12.0
6016,-14.0
6017,-18.0
6018,-25.0
6019,-26.0
6020,-26.0
6021,-25.0
6022,-26.0
6023,-26.0
6024,-27.0
6025,-28.0
6026,-26.0
6027,-25.0
6028,-27.0
6029,-25.0
6030,-25.0
6031,-24.0
6032,-25.0
6033,-23.0
6034,-20.0
6035,-22.0
6036,-16.0
6037,-20.0
6038,-16.0
6039,-18.0
6040,-15.0
6041,-15.0
6042,-21.0
6043,-18.0
6044,-18.0
6045,-16.0
6046,-23.0
6047,-14.0
6048,-14.0
6049,-13.0
6050,-10.0
6051,-10.0
6052,-10.0
6053,-12.0
6054,-11.0
6055,-8.0
6056,-12.0
6057,-11.0
6058,-13.0
6059,-11.0
6060,-17.0
6061,-28.0
6062,-18.0
6063,-32.0
6064,-33.0
6065,-30.0
6066,-24.0
6067,-25.0
6068,-43.0
6069,-3.0
6070,113.0
6071,259.0
6072,334.0
6073,192.0
6074,-13.0
6075,-97.0
6076,-97.0
6077,-67.0
6078,-47.0
6079,-40.0
6080,-37.0
6081,-33.0
6082,-32.0
6083,-34.0
6084,-33.0
6085,-31.0
6086,-28.0
6087,-25.0
6088,-25.0
6089,-18.0
6090,-16.0
6091,-13.0
6092,-12.0
6093,-7.0
6094,-2.0
6095,2.0
6096,17.0
6097,17.0
6098,27.0
6099,38.0
6100,51.0
6101,51.0
6102,57.0
6103,67.0
6104,64.0
6105,63.0
6106,61.0
6107,58.0
6108,48.0
6109,36.0
6110,28.0
6111,20.0
6112,8.0
6113,-10.0
6114,-16.0
6115,-20.0
6116,-26.0
6117,-20.0
6118,-32.0
6119,-33.0
6120,-31.0
6121,-20.0
6122,-35.0
6123,-34.0
6124,-32.0
6125,-27.0
6126,-28.0
6127,-31.0
6128,-27.0
6129,-30.0
6130,-25.0
6131,-24.0
6132,-22.0
6133,-23.0
6134,-24.0
6135,-22.0
6136,-20.0
6137,-20.0
6138,-17.0
6139,-27.0
6140,-27.0
6141,-26.0
6142,-23.0
6143,-32.0
6144,-27.0
6145,-25.0
6146,-25.0
6147,-18.0
6148,-21.0
6149,-17.0
6150,-23.0
6151,-17.0
6152,-12.0
6153,-18.0
6154,-22.0
6155,-23.0
6156,-24.0
6157,-23.0
6158,-23.0
6159,-27.0
6160,-35.0
6161,-38.0
6162,-41.0
6163,-33.0
6164,-35.0
6165,-20.0
6166,-47.0
6167,-33.0
6168,75.0
6169,227.0
6170,345.0
6171,216.0
6172,0.0
6173,-102.0
6174,-122.0
6175,-96.0
6176,-66.0
6177,-54.0
6178,-44.0
6179,-40.0
6180,-42.0
6181,-41.0
6182,-40.0
6183,-37.0
6184,-36.0
6185,-33.0
6186,-32.0
6187,-27.0
6188,-14.0
6189,-23.0
6190,-23.0
6191,-21.0
6192,-7.0
6193,-6.0
6194,2.0
6195,10.0
6196,23.0
6197,24.0
6198,38.0
6199,45.0
6200,50.0
6201,52.0
6202,55.0
6203,56.0
6204,55.0
6205,53.0
6206,47.0
6207,37.0
6208,30.0
6209,20.0
6210,8.0
6211,0.0
6212,-3.0
6213,-15.0
6214,-18.0
6215,-23.0
6216,-24.0
6217,-31.0
6218,-22.0
6219,-28.0
6220,-31.0
6221,-33.0
6222,-34.0
6223,-31.0
6224,-27.0
6225,-18.0
6226,-27.0
6227,-24.0
6228,-21.0
6229,-20.0
6230,-25.0
6231,-12.0
6232,-15.0
6233,-7.0
6234,-13.0
6235,-16.0
6236,-11.0
6237,-4.0
6238,-16.0
6239,-18.0
6240,-22.0
6241,-17.0
6242,-27.0
6243,-17.0
6244,-7.0
6245,12.0
6246,0.0
6247,-15.0
6248,-10.0
6249,-2.0
6250,-10.0
6251,-13.0
6252,-6.0
6253,-6.0
6254,-12.0
6255,-13.0
6256,-16.0
6257,-14.0
6258,-18.0
6259,-24.0
6260,-18.0
6261,-22.0
6262,-21.0
6263,-24.0
6264,5.0
6265,-31.0
6266,-14.0
6267,132.0
6268,270.0
6269,356.0
6270,196.0
6271,1.0
6272,-87.0
6273,-95.0
6274,-62.0
6275,-26.0
6276,-21.0
6277,-32.0
6278,-34.0
6279,-33.0
6280,-25.0
6281,-15.0
6282,-13.0
6283,-10.0
6284,-17.0
6285,-37.0
6286,-23.0
6287,-14.0
6288,-8.0
6289,-10.0
6290,22.0
6291,-4.0
6292,1.0
6293,26.0
6294,26.0
6295,33.0
6296,38.0
6297,44.0
6298,63.0
6299,76.0
6300,87.0
6301,67.0
6302,63.0
6303,77.0
6304,76.0
6305,50.0
6306,45.0
6307,44.0
6308,23.0
6309,3.0
6310,6.0
6311,2.0
6312,-22.0
6313,-16.0
6314,-16.0
6315,-26.0
6316,-23.0
6317,-12.0
6318,-40.0
6319,-6.0
6320,-7.0
6321,-53.0
6322,-43.0
6323,-13.0
6324,-23.0
6325,-37.0
6326,-23.0
6327,6.0
6328,-1.0
6329,-37.0
6330,-21.0
6331,-3.0
6332,-14.0
6333,-22.0
6334,-20.0
6335,-14.0
6336,-21.0
6337,-21.0
6338,-10.0
6339,-18.0
6340,-37.0
6341,-32.0
6342,-25.0
6343,-27.0
6344,-25.0
6345,-18.0
6346,-8.0
6347,-18.0
6348,-36.0
6349,-13.0
6350,-11.0
6351,-55.0
6352,-33.0
6353,-32.0
6354,-34.0
6355,-37.0
6356,-27.0
6357,-31.0
6358,-41.0
6359,-44.0
6360,-44.0
6361,-38.0
6362,-44.0
6363,-38.0
6364,-37.0
6365,-61.0
6366,-34.0
6367,77.0
6368,236.0
6369,330.0
6370,243.0
6371,62.0
6372,-62.0
6373,-87.0
6374,-71.0
6375,-57.0
6376,-50.0
6377,-53.0
6378,-45.0
6379,-40.0
6380,-44.0
6381,-50.0
6382,-46.0
6383,-43.0
6384,-38.0
6385,-34.0
6386,-27.0
6387,-28.0
6388,-25.0
6389,-16.0
6390,-11.0
6391,-5.0
6392,0.0
6393,13.0
6394,20.0
6395,25.0
6396,33.0
6397,50.0
6398,68.0
6399,66.0
6400,-104.0
6401,-100.0
6402,-83.0
6403,-79.0
6404,-78.0
6405,-74.0
6406,-60.0
6407,-48.0
6408,-45.0
6409,-44.0
6410,-31.0
6411,-20.0
6412,-12.0
6413,1.0
6414,-25.0
6415,2.0
6416,6.0
6417,50.0
6418,37.0
6419,29.0
6420,59.0
6421,39.0
6422,24.0
6423,48.0
6424,27.0
6425,35.0
6426,71.0
6427,94.0
6428,94.0
6429,98.0
6430,74.0
6431,58.0
6432,64.0
6433,37.0
6434,0.0
6435,-8.0
6436,-6.0
6437,-22.0
6438,-33.0
6439,-40.0
6440,-55.0
6441,-73.0
6442,-55.0
6443,121.0
6444,79.0
6445,-114.0
6446,-231.0
6447,-202.0
6448,-136.0
6449,-104.0
6450,-54.0
6451,-51.0
6452,-52.0
6453,-52.0
6454,-58.0
6455,-48.0
6456,-44.0
6457,-16.0
6458,-22.0
6459,-9.0
6460,-10.0
6461,-1.0
6462,18.0
6463,29.0
6464,31.0
6465,39.0
6466,52.0
6467,50.0
6468,47.0
6469,40.0
6470,27.0
6471,16.0
6472,20.0
6473,36.0
6474,48.0
6475,51.0
6476,56.0
6477,70.0
6478,79.0
6479,77.0
6480,59.0
6481,59.0
6482,55.0
6483,28.0
6484,-5.0
6485,-20.0
6486,-21.0
6487,-32.0
6488,-39.0
6489,-37.0
6490,-47.0
6491,-62.0
6492,2.0
6493,128.0
6494,56.0
6495,-110.0
6496,-156.0
6497,-125.0
6498,-91.0
6499,-66.0
6500,-54.0
6501,-41.0
6502,-47.0
6503,-25.0
6504,-29.0
6505,-24.0
6506,-13.0
6507,-6.0
6508,12.0
6509,32.0
6510,20.0
6511,1.0
6512,9.0
6513,29.0
6514,33.0
6515,68.0
6516,79.0
6517,59.0
6518,59.0
6519,58.0
6520,43.0
6521,47.0
6522,54.0
6523,56.0
6524,66.0
6525,68.0
6526,68.0
6527,47.0
6528,32.0
6529,59.0
6530,87.0
6531,90.0
6532,74.0
6533,44.0
6534,27.0
6535,9.0
6536,-16.0
6537,-27.0
6538,-28.0
6539,-36.0
6540,-51.0
6541,-24.0
6542,102.0
6543,25.0
6544,-113.0
6545,-168.0
6546,-140.0
6547,-86.0
6548,-51.0
6549,-44.0
6550,-35.0
6551,-24.0
6552,-20.0
6553,-22.0
6554,-14.0
6555,13.0
6556,9.0
6557,10.0
6558,20.0
6559,45.0
6560,56.0
6561,31.0
6562,32.0
6563,47.0
6564,62.0
6565,51.0
6566,25.0
6567,12.0
6568,29.0
6569,21.0
6570,12.0
6571,16.0
6572,6.0
6573,21.0
6574,51.0
6575,50.0
6576,39.0
6577,50.0
6578,59.0
6579,51.0
6580,44.0
6581,36.0
6582,10.0
6583,-14.0
6584,-14.0
6585,-33.0
6586,-37.0
6587,-51.0
6588,-43.0
6589,-59.0
6590,-79.0
6591,55.0
6592,101.0
6593,-86.0
6594,-196.0
6595,-166.0
6596,-118.0
6597,-82.0
6598,-58.0
6599,-67.0
6600,-87.0
6601,-77.0
6602,-97.0
6603,-62.0
6604,-12.0
6605,-16.0
6606,-16.0
6607,-17.0
6608,-21.0
6609,-43.0
6610,-37.0
6611,-18.0
6612,-2.0
6613,12.0
6614,43.0
6615,45.0
6616,21.0
6617,25.0
6618,35.0
6619,48.0
6620,39.0
6621,45.0
6622,66.0
6623,58.0
6624,33.0
6625,58.0
6626,48.0
6627,77.0
6628,82.0
6629,71.0
6630,56.0
6631,45.0
6632,6.0
6633,9.0
6634,-8.0
6635,-18.0
6636,-29.0
6637,-45.0
6638,-35.0
6639,-36.0
6640,33.0
6641,155.0
6642,81.0
6643,-106.0
6644,-167.0
6645,-156.0
6646,-113.0
6647,-87.0
6648,-74.0
6649,-63.0
6650,-40.0
6651,-36.0
6652,-43.0
6653,-41.0
6654,-51.0
6655,-27.0
6656,-29.0
6657,-32.0
6658,-45.0
6659,5.0
6660,-10.0
6661,-9.0
6662,2.0
6663,18.0
6664,18.0
6665,31.0
6666,37.0
6667,24.0
6668,25.0
6669,27.0
6670,20.0
6671,12.0
6672,18.0
6673,32.0
6674,41.0
6675,55.0
6676,59.0
6677,63.0
6678,63.0
6679,63.0
6680,35.0
6681,45.0
6682,18.0
6683,18.0
6684,24.0
6685,-5.0
6686,6.0
6687,-22.0
6688,-36.0
6689,-106.0
6690,-24.0
6691,148.0
6692,43.0
6693,-133.0
6694,-174.0
6695,-121.0
6696,-90.0
6697,-56.0
6698,-44.0
6699,-43.0
6700,-33.0
6701,-44.0
6702,-45.0
6703,-39.0
6704,-27.0
6705,-14.0
6706,-24.0
6707,20.0
6708,37.0
6709,24.0
6710,28.0
6711,25.0
6712,14.0
6713,24.0
6714,45.0
6715,59.0
6716,70.0
6717,71.0
6718,62.0
6719,52.0
6720,47.0
6721,60.0
6722,64.0
6723,71.0
6724,87.0
6725,102.0
6726,104.0
6727,124.0
6728,114.0
6729,106.0
6730,77.0
6731,51.0
6732,48.0
6733,32.0
6734,16.0
6735,17.0
6736,-1.0
6737,-14.0
6738,-9.0
6739,-8.0
6740,56.0
6741,114.0
6742,-85.0
6743,-189.0
6744,-183.0
6745,-127.0
6746,-77.0
6747,-63.0
6748,-58.0
6749,-52.0
6750,-64.0
6751,-75.0
6752,-75.0
6753,-68.0
6754,-60.0
6755,-48.0
6756,-36.0
6757,-22.0
6758,-29.0
6759,-22.0
6760,-10.0
6761,2.0
6762,8.0
6763,13.0
6764,16.0
6765,17.0
6766,37.0
6767,32.0
6768,10.0
6769,8.0
6770,13.0
6771,24.0
6772,28.0
6773,28.0
6774,47.0
6775,63.0
6776,70.0
6777,78.0
6778,83.0
6779,63.0
6780,39.0
6781,4.0
6782,-17.0
6783,-22.0
6784,-35.0
6785,-21.0
6786,-45.0
6787,-40.0
6788,-44.0
6789,-79.0
6790,-36.0
6791,90.0
6792,-66.0
6793,-175.0
6794,-186.0
6795,-144.0
6796,-77.0
6797,-52.0
6798,-37.0
6799,-55.0
6800,-39.0
6801,-36.0
6802,-41.0
6803,-24.0
6804,-39.0
6805,-43.0
6806,-32.0
6807,-9.0
6808,-2.0
6809,9.0
6810,25.0
6811,37.0
6812,41.0
6813,52.0
6814,51.0
6815,45.0
6816,54.0
6817,59.0
6818,51.0
6819,35.0
6820,31.0
6821,36.0
6822,32.0
6823,47.0
6824,54.0
6825,55.0
6826,82.0
6827,83.0
6828,79.0
6829,81.0
6830,25.0
6831,13.0
6832,-20.0
6833,-5.0
6834,-9.0
6835,-33.0
6836,-36.0
6837,-45.0
6838,-64.0
6839,-20.0
6840,116.0
6841,97.0
6842,-82.0
6843,-179.0
6844,-168.0
6845,-127.0
6846,-101.0
6847,-81.0
6848,-71.0
6849,-70.0
6850,-60.0
6851,-51.0
6852,-41.0
6853,-47.0
6854,-33.0
6855,-32.0
6856,-25.0
6857,-32.0
6858,-10.0
6859,21.0
6860,40.0
6861,43.0
6862,47.0
6863,64.0
6864,56.0
6865,47.0
6866,56.0
6867,87.0
6868,78.0
6869,64.0
6870,71.0
6871,70.0
6872,58.0
6873,70.0
6874,77.0
6875,98.0
6876,94.0
6877,67.0
6878,71.0
6879,40.0
6880,18.0
6881,29.0
6882,5.0
6883,-6.0
6884,6.0
6885,6.0
6886,-5.0
6887,-36.0
6888,-73.0
6889,63.0
6890,135.0
6891,-54.0
6892,-183.0
6893,-158.0
6894,-106.0
6895,-70.0
6896,-54.0
6897,-39.0
6898,-28.0
6899,-12.0
6900,-16.0
6901,-6.0
6902,5.0
6903,0.0
6904,-2.0
6905,6.0
6906,32.0
6907,37.0
6908,35.0
6909,41.0
6910,58.0
6911,62.0
6912,51.0
6913,50.0
6914,56.0
6915,58.0
6916,52.0
6917,37.0
6918,24.0
6919,27.0
6920,24.0
6921,16.0
6922,50.0
6923,70.0
6924,63.0
6925,68.0
6926,55.0
6927,36.0
6928,24.0
6929,12.0
6930,6.0
6931,-27.0
6932,-39.0
6933,-33.0
6934,-37.0
6935,-45.0
6936,-55.0
6937,-55.0
6938,22.0
6939,59.0
6940,-66.0
6941,-162.0
6942,-163.0
6943,-128.0
6944,-104.0
6945,-73.0
6946,-50.0
6947,-52.0
6948,-39.0
6949,-33.0
6950,-18.0
6951,-2.0
6952,-5.0
6953,-13.0
6954,-33.0
6955,-4.0
6956,12.0
6957,9.0
6958,13.0
6959,0.0
6960,-2.0
6961,14.0
6962,21.0
6963,10.0
6964,9.0
6965,14.0
6966,13.0
6967,20.0
6968,29.0
6969,14.0
6970,28.0
6971,74.0
6972,87.0
6973,101.0
6974,89.0
6975,73.0
6976,70.0
6977,41.0
6978,41.0
6979,14.0
6980,5.0
6981,-4.0
6982,-25.0
6983,-18.0
6984,-18.0
6985,-12.0
6986,-44.0
6987,127.0
6988,148.0
6989,-60.0
6990,-160.0
6991,-155.0
6992,-116.0
6993,-67.0
6994,-48.0
6995,-36.0
6996,-40.0
6997,-44.0
6998,-43.0
6999,-41.0
7000,-50.0
7001,-28.0
7002,-25.0
7003,-12.0
7004,-14.0
7005,-13.0
7006,-5.0
7007,-12.0
7008,5.0
7009,12.0
7010,21.0
7011,48.0
7012,47.0
7013,36.0
7014,36.0
7015,18.0
7016,16.0
7017,16.0
7018,10.0
7019,32.0
7020,37.0
7021,54.0
7022,62.0
7023,81.0
7024,73.0
7025,68.0
7026,43.0
7027,28.0
7028,5.0
7029,-14.0
7030,-9.0
7031,-21.0
7032,-36.0
7033,-39.0
7034,-81.0
7035,-77.0
7036,41.0
7037,178.0
7038,40.0
7039,-125.0
7040,-179.0
7041,-131.0
7042,-66.0
7043,-22.0
7044,-22.0
7045,-32.0
7046,-20.0
7047,-27.0
7048,-24.0
7049,-28.0
7050,-18.0
7051,0.0
7052,8.0
7053,-9.0
7054,-6.0
7055,32.0
7056,22.0
7057,52.0
7058,44.0
7059,28.0
7060,40.0
7061,66.0
7062,94.0
7063,87.0
7064,37.0
7065,37.0
7066,44.0
7067,40.0
7068,50.0
7069,60.0
7070,78.0
7071,82.0
7072,94.0
7073,104.0
7074,85.0
7075,67.0
7076,64.0
7077,52.0
7078,41.0
7079,21.0
7080,13.0
7081,5.0
7082,9.0
7083,-6.0
7084,-37.0
7085,47.0
7086,94.0
7087,-44.0
7088,-167.0
7089,-177.0
7090,-132.0
7091,-81.0
7092,-56.0
7093,-44.0
7094,-41.0
7095,-40.0
7096,-47.0
7097,-52.0
7098,-47.0
7099,-33.0
7100,-31.0
7101,-25.0
7102,-14.0
7103,-21.0
7104,-20.0
7105,-25.0
7106,-18.0
7107,2.0
7108,24.0
7109,29.0
7110,24.0
7111,36.0
7112,35.0
7113,22.0
7114,27.0
7115,21.0
7116,25.0
7117,31.0
7118,35.0
7119,47.0
7120,59.0
7121,66.0
7122,54.0
7123,55.0
7124,67.0
7125,56.0
7126,43.0
7127,27.0
7128,14.0
7129,-4.0
7130,-28.0
7131,-51.0
7132,-48.0
7133,-25.0
7134,-45.0
7135,24.0
7136,28.0
7137,-125.0
7138,-246.0
7139,-187.0
7140,-117.0
7141,-106.0
7142,-100.0
7143,-74.0
7144,-67.0
7145,-77.0
7146,-82.0
7147,-81.0
7148,-74.0
7149,-51.0
7150,-18.0
7151,-33.0
7152,-25.0
7153,-18.0
7154,1.0
7155,13.0
7156,1.0
7157,4.0
7158,29.0
7159,44.0
7160,48.0
7161,51.0
7162,47.0
7163,41.0
7164,39.0
7165,41.0
7166,44.0
7167,54.0
7168,58.0
7169,70.0
7170,90.0
7171,101.0
7172,98.0
7173,87.0
7174,62.0
7175,21.0
7176,-6.0
7177,-27.0
7178,-39.0
7179,-36.0
7180,-32.0
7181,-44.0
7182,-54.0
7183,-68.0
7184,31.0
7185,125.0
7186,-32.0
7187,-154.0
7188,-177.0
7189,-158.0
7190,-91.0
7191,-75.0
7192,-82.0
7193,-86.0
7194,-79.0
7195,-64.0
7196,-63.0
7197,-52.0
7198,-28.0
7199,-43.0
7200,-40.0
7201,-25.0
7202,-18.0
7203,10.0
7204,18.0
7205,25.0
7206,40.0
7207,51.0
7208,50.0
7209,43.0
7210,54.0
7211,52.0
7212,24.0
7213,18.0
7214,32.0
7215,39.0
7216,39.0
7217,35.0
7218,48.0
7219,63.0
7220,86.0
7221,101.0
7222,106.0
7223,101.0
7224,62.0
7225,60.0
7226,54.0
7227,31.0
7228,1.0
7229,0.0
7230,1.0
7231,-16.0
7232,-27.0
7233,-16.0
7234,98.0
7235,60.0
7236,-118.0
7237,-164.0
7238,-129.0
7239,-71.0
7240,-17.0
7241,-36.0
7242,-32.0
7243,-41.0
7244,-44.0
7245,-50.0
7246,-54.0
7247,-45.0
7248,-21.0
7249,-1.0
7250,-2.0
7251,4.0
7252,9.0
7253,20.0
7254,40.0
7255,40.0
7256,51.0
7257,70.0
7258,74.0
7259,73.0
7260,74.0
7261,82.0
7262,63.0
7263,56.0
7264,52.0
7265,62.0
7266,73.0
7267,86.0
7268,95.0
7269,117.0
7270,105.0
7271,94.0
7272,71.0
7273,55.0
7274,21.0
7275,-1.0
7276,-9.0
7277,-27.0
7278,-24.0
7279,-35.0
7280,-60.0
7281,-77.0
7282,-55.0
7283,75.0
7284,39.0
7285,-129.0
7286,-212.0
7287,-182.0
7288,-139.0
7289,-98.0
7290,-74.0
7291,-77.0
7292,-75.0
7293,-66.0
7294,-67.0
7295,-68.0
7296,-52.0
7297,-36.0
7298,-47.0
7299,-36.0
7300,-16.0
7301,-17.0
7302,0.0
7303,21.0
7304,29.0
7305,28.0
7306,31.0
7307,6.0
7308,-22.0
7309,9.0
7310,78.0
7311,60.0
7312,31.0
7313,33.0
7314,17.0
7315,36.0
7316,54.0
7317,68.0
7318,62.0
7319,64.0
7320,60.0
7321,33.0
7322,8.0
7323,-4.0
7324,-12.0
7325,-27.0
7326,-37.0
7327,-44.0
7328,-37.0
7329,-29.0
7330,-16.0
7331,22.0
7332,82.0
7333,6.0
7334,-144.0
7335,-187.0
7336,-156.0
7337,-91.0
7338,-56.0
7339,-40.0
7340,-40.0
7341,-32.0
7342,-14.0
7343,-32.0
7344,-25.0
7345,-28.0
7346,-9.0
7347,-13.0
7348,16.0
7349,16.0
7350,29.0
7351,40.0
7352,24.0
7353,22.0
7354,24.0
7355,31.0
7356,25.0
7357,27.0
7358,36.0
7359,33.0
7360,25.0
7361,28.0
7362,14.0
7363,18.0
7364,33.0
7365,50.0
7366,79.0
7367,75.0
7368,60.0
7369,58.0
7370,41.0
7371,9.0
7372,5.0
7373,-13.0
7374,-31.0
7375,-25.0
7376,-35.0
7377,-40.0
7378,-52.0
7379,-68.0
7380,58.0
7381,193.0
7382,-33.0
7383,-177.0
7384,-190.0
7385,-144.0
7386,-95.0
7387,-73.0
7388,-70.0
7389,-78.0
7390,-86.0
7391,-68.0
7392,-43.0
7393,-33.0
7394,-22.0
7395,-17.0
7396,-18.0
7397,-22.0
7398,-10.0
7399,20.0
7400,31.0
7401,31.0
7402,55.0
7403,64.0
7404,43.0
7405,45.0
7406,47.0
7407,83.0
7408,67.0
7409,45.0
7410,52.0
7411,93.0
7412,56.0
7413,102.0
7414,56.0
7415,86.0
7416,120.0
7417,127.0
7418,104.0
7419,62.0
7420,32.0
7421,16.0
7422,33.0
7423,-1.0
7424,-5.0
7425,-18.0
7426,-22.0
7427,-32.0
7428,1.0
7429,127.0
7430,112.0
7431,-75.0
7432,-152.0
7433,-131.0
7434,-82.0
7435,-45.0
7436,-28.0
7437,-24.0
7438,-16.0
7439,-24.0
7440,-20.0
7441,-32.0
7442,-17.0
7443,-4.0
7444,5.0
7445,-1.0
7446,6.0
7447,17.0
7448,36.0
7449,36.0
7450,20.0
7451,16.0
7452,16.0
7453,29.0
7454,43.0
7455,36.0
7456,21.0
7457,24.0
7458,16.0
7459,12.0
7460,14.0
7461,28.0
7462,50.0
7463,54.0
7464,58.0
7465,77.0
7466,67.0
7467,52.0
7468,35.0
7469,17.0
7470,-2.0
7471,-25.0
7472,-22.0
7473,-25.0
7474,-29.0
7475,-55.0
7476,-68.0
7477,-13.0
7478,156.0
7479,-22.0
7480,-179.0
7481,-200.0
7482,-148.0
7483,-81.0
7484,-64.0
7485,-70.0
7486,-90.0
7487,-54.0
7488,-39.0
7489,-41.0
7490,-43.0
7491,-60.0
7492,-39.0
7493,-16.0
7494,-2.0
7495,-8.0
7496,-9.0
7497,-2.0
7498,2.0
7499,-12.0
7500,-24.0
7501,8.0
7502,43.0
7503,62.0
7504,48.0
7505,35.0
7506,28.0
7507,32.0
7508,29.0
7509,25.0
7510,21.0
7511,40.0
7512,62.0
7513,74.0
7514,81.0
7515,51.0
7516,55.0
7517,25.0
7518,-5.0
7519,1.0
7520,-16.0
7521,-16.0
7522,-18.0
7523,-22.0
7524,-17.0
7525,-32.0
7526,20.0
7527,64.0
7528,-73.0
7529,-181.0
7530,-173.0
7531,-125.0
7532,-91.0
7533,-70.0
7534,-64.0
7535,-63.0
7536,-56.0
7537,-52.0
7538,-60.0
7539,-59.0
7540,-66.0
7541,-58.0
7542,-28.0
7543,-27.0
7544,-25.0
7545,-24.0
7546,-22.0
7547,-17.0
7548,-6.0
7549,6.0
7550,12.0
7551,9.0
7552,4.0
7553,22.0
7554,35.0
7555,20.0
7556,16.0
7557,22.0
7558,29.0
7559,47.0
7560,62.0
7561,55.0
7562,74.0
7563,62.0
7564,43.0
7565,41.0
7566,10.0
7567,-12.0
7568,-37.0
7569,-43.0
7570,-36.0
7571,-43.0
7572,-36.0
7573,-44.0
7574,-66.0
7575,-9.0
7576,109.0
7577,39.0
7578,-109.0
7579,-154.0
7580,-127.0
7581,-82.0
7582,-48.0
7583,-43.0
7584,-44.0
7585,-31.0
7586,-25.0
7587,-20.0
7588,-35.0
7589,-59.0
7590,-55.0
7591,-13.0
7592,18.0
7593,31.0
7594,20.0
7595,5.0
7596,31.0
7597,37.0
7598,50.0
7599,62.0
7600,75.0
7601,60.0
7602,54.0
7603,51.0
7604,48.0
7605,54.0
7606,58.0
7607,51.0
7608,63.0
7609,87.0
7610,94.0
7611,110.0
7612,108.0
7613,93.0
7614,81.0
7615,60.0
7616,37.0
7617,18.0
7618,4.0
7619,-13.0
7620,-14.0
7621,-25.0
7622,-31.0
7623,-36.0
7624,17.0
7625,148.0
7626,47.0
7627,-110.0
7628,-164.0
7629,-144.0
7630,-85.0
7631,-47.0
7632,-37.0
7633,-63.0
7634,-31.0
7635,-22.0
7636,-36.0
7637,-40.0
7638,-28.0
7639,-13.0
7640,-22.0
7641,-16.0
7642,13.0
7643,4.0
7644,8.0
7645,25.0
7646,43.0
7647,36.0
7648,35.0
7649,55.0
7650,48.0
7651,58.0
7652,48.0
7653,44.0
7654,56.0
7655,41.0
7656,48.0
7657,44.0
7658,78.0
7659,100.0
7660,100.0
7661,106.0
7662,91.0
7663,85.0
7664,60.0
7665,17.0
7666,2.0
7667,5.0
7668,-2.0
7669,-9.0
7670,-10.0
7671,-29.0
7672,-48.0
7673,-25.0
7674,73.0
7675,-55.0
7676,-202.0
7677,-209.0
7678,-155.0
7679,-95.0
7680,-2.0
7681,4.0
7682,-6.0
7683,1.0
7684,-4.0
7685,-13.0
7686,-7.0
7687,0.0
7688,-23.0
7689,-13.0
7690,-10.0
7691,-11.0
7692,-20.0
7693,-11.0
7694,-6.0
7695,-12.0
7696,-3.0
7697,34.0
7698,68.0
7699,72.0
7700,64.0
7701,13.0
7702,12.0
7703,-12.0
7704,-16.0
7705,-9.0
7706,-11.0
7707,-9.0
7708,-14.0
7709,-14.0
7710,-11.0
7711,0.0
7712,-1.0
7713,-14.0
7714,-4.0
7715,-8.0
7716,-8.0
7717,-6.0
7718,-6.0
7719,2.0
7720,5.0
7721,-7.0
7722,2.0
7723,8.0
7724,5.0
7725,5.0
7726,11.0
7727,12.0
7728,12.0
7729,29.0
7730,27.0
7731,27.0
7732,21.0
7733,10.0
7734,20.0
7735,19.0
7736,6.0
7737,0.0
7738,6.0
7739,0.0
7740,-9.0
7741,-12.0
7742,-2.0
7743,-16.0
7744,-8.0
7745,4.0
7746,-10.0
7747,-12.0
7748,0.0
7749,-2.0
7750,-5.0
7751,-12.0
7752,-2.0
7753,0.0
7754,-10.0
7755,-9.0
7756,2.0
7757,-1.0
7758,-1.0
7759,-13.0
7760,-6.0
7761,-3.0
7762,-10.0
7763,9.0
7764,3.0
7765,-4.0
7766,-3.0
7767,-1.0
7768,-5.0
7769,4.0
7770,-4.0
7771,-12.0
7772,2.0
7773,5.0
7774,-14.0
7775,-3.0
7776,3.0
7777,-4.0
7778,-3.0
7779,-6.0
7780,8.0
7781,6.0
7782,0.0
7783,13.0
7784,18.0
7785,0.0
7786,8.0
7787,5.0
7788,12.0
7789,-2.0
7790,-11.0
7791,-2.0
7792,-2.0
7793,1.0
7794,-6.0
7795,-6.0
7796,-9.0
7797,-19.0
7798,0.0
7799,0.0
7800,-15.0
7801,0.0
7802,-17.0
7803,15.0
7804,51.0
7805,65.0
7806,69.0
7807,64.0
7808,20.0
7809,3.0
7810,3.0
7811,4.0
7812,-16.0
7813,-14.0
7814,-9.0
7815,-15.0
7816,-8.0
7817,-5.0
7818,-3.0
7819,0.0
7820,-17.0
7821,0.0
7822,3.0
7823,-14.0
7824,-6.0
7825,-11.0
7826,-3.0
7827,-3.0
7828,0.0
7829,-5.0
7830,14.0
7831,27.0
7832,4.0
7833,10.0
7834,37.0
7835,15.0
7836,15.0
7837,30.0
7838,21.0
7839,19.0
7840,27.0
7841,21.0
7842,20.0
7843,0.0
7844,-1.0
7845,16.0
7846,-4.0
7847,-5.0
7848,-8.0
7849,-5.0
7850,-4.0
7851,0.0
7852,6.0
7853,-5.0
7854,2.0
7855,0.0
7856,-1.0
7857,-11.0
7858,17.0
7859,4.0
7860,-10.0
7861,0.0
7862,-2.0
7863,-3.0
7864,-4.0
7865,-1.0
7866,11.0
7867,-7.0
7868,-17.0
7869,-1.0
7870,0.0
7871,-5.0
7872,-10.0
7873,-35.0
7874,32.0
7875,7.0
7876,-22.0
7877,-13.0
7878,0.0
7879,0.0
7880,-21.0
7881,0.0
7882,0.0
7883,-6.0
7884,0.0
7885,-3.0
7886,12.0
7887,0.0
7888,9.0
7889,17.0
7890,14.0
7891,1.0
7892,4.0
7893,4.0
7894,0.0
7895,0.0
7896,2.0
7897,-10.0
7898,2.0
7899,18.0
7900,-17.0
7901,4.0
7902,-24.0
7903,-22.0
7904,-16.0
7905,1.0
7906,-15.0
7907,-17.0
7908,-4.0
7909,19.0
7910,61.0
7911,80.0
7912,56.0
7913,29.0
7914,19.0
7915,-7.0
7916,-10.0
7917,-3.0
7918,-1.0
7919,-3.0
7920,-10.0
7921,-11.0
7922,-11.0
7923,-3.0
7924,-6.0
7925,-7.0
7926,-5.0
7927,-3.0
7928,-1.0
7929,-4.0
7930,1.0
7931,-1.0
7932,-5.0
7933,0.0
7934,3.0
7935,7.0
7936,9.0
7937,15.0
7938,17.0
7939,18.0
7940,22.0
7941,27.0
7942,28.0
7943,28.0
7944,25.0
7945,24.0
7946,16.0
7947,17.0
7948,5.0
7949,1.0
7950,-4.0
7951,-6.0
7952,-10.0
7953,-8.0
7954,-10.0
7955,-11.0
7956,-14.0
7957,-16.0
7958,-7.0
7959,-9.0
7960,-11.0
7961,-15.0
7962,-10.0
7963,-14.0
7964,-9.0
7965,-2.0
7966,-6.0
7967,-6.0
7968,-7.0
7969,-6.0
7970,-6.0
7971,-4.0
7972,-6.0
7973,-6.0
7974,-8.0
7975,-9.0
7976,-6.0
7977,-10.0
7978,-3.0
7979,0.0
7980,-3.0
7981,-3.0
7982,-1.0
7983,0.0
7984,-4.0
7985,-7.0
7986,-7.0
7987,-8.0
7988,-5.0
7989,-6.0
7990,-7.0
7991,-12.0
7992,-4.0
7993,4.0
7994,11.0
7995,9.0
7996,7.0
7997,8.0
7998,9.0
7999,0.0
8000,0.0
8001,-1.0
8002,0.0
8003,-4.0
8004,-1.0
8005,-8.0
8006,-4.0
8007,-10.0
8008,-2.0
8009,-12.0
8010,-7.0
8011,-7.0
8012,-11.0
8013,-10.0
8014,4.0
8015,37.0
8016,71.0
8017,86.0
8018,81.0
8019,47.0
8020,15.0
8021,-2.0
8022,-2.0
8023,-1.0
8024,-1.0
8025,-7.0
8026,-6.0
8027,-8.0
8028,-3.0
8029,-12.0
8030,-5.0
8031,-6.0
8032,-6.0
8033,-12.0
8034,-7.0
8035,-9.0
8036,-19.0
8037,-4.0
8038,-3.0
8039,5.0
8040,12.0
8041,14.0
8042,12.0
8043,11.0
8044,9.0
8045,13.0
8046,18.0
8047,24.0
8048,23.0
8049,31.0
8050,25.0
8051,23.0
8052,15.0
8053,12.0
8054,7.0
8055,0.0
8056,-2.0
8057,-2.0
8058,-2.0
8059,-1.0
8060,-4.0
8061,-3.0
8062,-2.0
8063,0.0
8064,0.0
8065,0.0
8066,1.0
8067,0.0
8068,-5.0
8069,-2.0
8070,-1.0
8071,-3.0
8072,0.0
8073,-12.0
8074,-8.0
8075,-5.0
8076,-7.0
8077,-5.0
8078,-10.0
8079,-17.0
8080,-14.0
8081,-7.0
8082,-6.0
8083,-7.0
8084,-6.0
8085,-11.0
8086,-9.0
8087,-12.0
8088,-12.0
8089,-14.0
8090,-9.0
8091,-15.0
8092,-6.0
8093,-12.0
8094,-2.0
8095,-1.0
8096,0.0
8097,0.0
8098,12.0
8099,13.0
8100,15.0
8101,9.0
8102,8.0
8103,6.0
8104,3.0
8105,-1.0
8106,0.0
8107,-7.0
8108,-14.0
8109,-10.0
8110,-2.0
8111,-4.0
8112,-4.0
8113,-16.0
8114,-3.0
8115,-11.0
8116,-13.0
8117,-15.0
8118,-8.0
8119,8.0
8120,42.0
8121,60.0
8122,63.0
8123,46.0
8124,25.0
8125,4.0
8126,-1.0
8127,-5.0
8128,-3.0
8129,-11.0
8130,-7.0
8131,-12.0
8132,-10.0
8133,-9.0
8134,-12.0
8135,-9.0
8136,-6.0
8137,-8.0
8138,-7.0
8139,-8.0
8140,-4.0
8141,0.0
8142,-1.0
8143,-6.0
8144,-2.0
8145,12.0
8146,9.0
8147,16.0
8148,18.0
8149,18.0
8150,16.0
8151,33.0
8152,34.0
8153,35.0
8154,32.0
8155,34.0
8156,30.0
8157,23.0
8158,12.0
8159,8.0
8160,5.0
8161,8.0
8162,2.0
8163,0.0
8164,-1.0
8165,-6.0
8166,1.0
8167,-2.0
8168,0.0
8169,-7.0
8170,-7.0
8171,-5.0
8172,-7.0
8173,-8.0
8174,0.0
8175,-7.0
8176,0.0
8177,-6.0
8178,-4.0
8179,-5.0
8180,-8.0
8181,-8.0
8182,-9.0
8183,-6.0
8184,-6.0
8185,-4.0
8186,-2.0
8187,-5.0
8188,-6.0
8189,-2.0
8190,-9.0
8191,0.0
8192,-7.0
8193,-7.0
8194,-5.0
8195,-6.0
8196,0.0
8197,-8.0
8198,-3.0
8199,-4.0
8200,-2.0
8201,1.0
8202,7.0
8203,-1.0
8204,0.0
8205,-5.0
8206,-7.0
8207,-12.0
8208,-15.0
8209,-20.0
8210,-22.0
8211,-15.0
8212,-25.0
8213,-21.0
8214,-38.0
8215,-24.0
8216,-38.0
8217,-19.0
8218,-27.0
8219,-38.0
8220,-46.0
8221,-49.0
8222,-18.0
8223,7.0
8224,22.0
8225,30.0
8226,19.0
8227,-1.0
8228,-10.0
8229,-11.0
8230,-6.0
8231,-10.0
8232,-4.0
8233,0.0
8234,2.0
8235,5.0
8236,4.0
8237,2.0
8238,8.0
8239,10.0
8240,15.0
8241,12.0
8242,3.0
8243,10.0
8244,12.0
8245,11.0
8246,6.0
8247,7.0
8248,3.0
8249,8.0
8250,11.0
8251,14.0
8252,16.0
8253,20.0
8254,25.0
8255,26.0
8256,21.0
8257,21.0
8258,15.0
8259,19.0
8260,8.0
8261,13.0
8262,0.0
8263,-5.0
8264,-9.0
8265,-7.0
8266,-11.0
8267,-11.0
8268,-11.0
8269,-13.0
8270,-12.0
8271,-10.0
8272,-8.0
8273,-6.0
8274,-10.0
8275,-7.0
8276,-5.0
8277,0.0
8278,-7.0
8279,0.0
8280,-3.0
8281,6.0
8282,-2.0
8283,-4.0
8284,1.0
8285,0.0
8286,0.0
8287,0.0
8288,-3.0
8289,-3.0
8290,-2.0
8291,-2.0
8292,0.0
8293,0.0
8294,-2.0
8295,-1.0
8296,-3.0
8297,0.0
8298,-3.0
8299,-1.0
8300,-4.0
8301,0.0
8302,-5.0
8303,8.0
8304,4.0
8305,10.0
8306,12.0
8307,10.0
8308,3.0
8309,9.0
8310,0.0
8311,-6.0
8312,-8.0
8313,-7.0
8314,-2.0
8315,-2.0
8316,-1.0
8317,-1.0
8318,-5.0
8319,-5.0
8320,4.0
8321,10.0
8322,10.0
8323,5.0
8324,-6.0
8325,3.0
8326,23.0
8327,57.0
8328,61.0
8329,60.0
8330,28.0
8331,8.0
8332,3.0
8333,2.0
8334,0.0
8335,6.0
8336,7.0
8337,0.0
8338,2.0
8339,-2.0
8340,-2.0
8341,-12.0
8342,-5.0
8343,-9.0
8344,-6.0
8345,-5.0
8346,-4.0
8347,-5.0
8348,-4.0
8349,0.0
8350,0.0
8351,1.0
8352,0.0
8353,6.0
8354,11.0
8355,20.0
8356,25.0
8357,22.0
8358,33.0
8359,33.0
8360,34.0
8361,31.0
8362,30.0
8363,19.0
8364,9.0
8365,3.0
8366,12.0
8367,1.0
8368,0.0
8369,-2.0
8370,-5.0
8371,-10.0
8372,-6.0
8373,-8.0
8374,-15.0
8375,-23.0
8376,-19.0
8377,-18.0
8378,-9.0
8379,-9.0
8380,-15.0
8381,-13.0
8382,-14.0
8383,-13.0
8384,-11.0
8385,-6.0
8386,-15.0
8387,-5.0
8388,-13.0
8389,-6.0
8390,6.0
8391,10.0
8392,3.0
8393,2.0
8394,-11.0
8395,0.0
8396,3.0
8397,5.0
8398,1.0
8399,2.0
8400,2.0
8401,4.0
8402,2.0
8403,4.0
8404,10.0
8405,9.0
8406,6.0
8407,8.0
8408,5.0
8409,8.0
8410,4.0
8411,5.0
8412,0.0
8413,-3.0
8414,-13.0
8415,-11.0
8416,-12.0
8417,-11.0
8418,-17.0
8419,-18.0
8420,-17.0
8421,-4.0
8422,-7.0
8423,-5.0
8424,-10.0
8425,-9.0
8426,-11.0
8427,-6.0
8428,12.0
8429,49.0
8430,69.0
8431,70.0
8432,48.0
8433,23.0
8434,3.0
8435,-9.0
8436,-13.0
8437,-7.0
8438,-13.0
8439,-15.0
8440,-10.0
8441,-13.0
8442,-18.0
8443,-12.0
8444,-10.0
8445,-10.0
8446,-10.0
8447,-11.0
8448,-8.0
8449,-7.0
8450,-7.0
8451,-8.0
8452,0.0
8453,-1.0
8454,6.0
8455,9.0
8456,9.0
8457,14.0
8458,17.0
8459,26.0
8460,24.0
8461,22.0
8462,22.0
8463,21.0
8464,20.0
8465,15.0
8466,10.0
8467,8.0
8468,5.0
8469,3.0
8470,0.0
8471,-1.0
8472,2.0
8473,4.0
8474,0.0
8475,-1.0
8476,4.0
8477,-3.0
8478,-1.0
8479,-4.0
8480,-2.0
8481,-3.0
8482,0.0
8483,0.0
8484,3.0
8485,0.0
8486,-3.0
8487,0.0
8488,-1.0
8489,0.0
8490,2.0
8491,-1.0
8492,-6.0
8493,-1.0
8494,-7.0
8495,-5.0
8496,-5.0
8497,-9.0
8498,-5.0
8499,-10.0
8500,-11.0
8501,-13.0
8502,-15.0
8503,-14.0
8504,-13.0
8505,-11.0
8506,-11.0
8507,-9.0
8508,-6.0
8509,0.0
8510,1.0
8511,8.0
8512,10.0
8513,11.0
8514,11.0
8515,13.0
8516,6.0
8517,1.0
8518,-1.0
8519,-2.0
8520,-3.0
8521,-5.0
8522,-9.0
8523,-17.0
8524,-15.0
8525,-10.0
8526,-17.0
8527,-22.0
8528,-24.0
8529,-29.0
8530,-28.0
8531,0.0
8532,41.0
8533,57.0
8534,70.0
8535,58.0
8536,31.0
8537,10.0
8538,0.0
8539,1.0
8540,3.0
8541,7.0
8542,10.0
8543,8.0
8544,7.0
8545,2.0
8546,5.0
8547,7.0
8548,1.0
8549,-3.0
8550,6.0
8551,0.0
8552,4.0
8553,0.0
8554,5.0
8555,0.0
8556,4.0
8557,4.0
8558,10.0
8559,14.0
8560,20.0
8561,22.0
8562,25.0
8563,27.0
8564,28.0
8565,29.0
8566,33.0
8567,31.0
8568,29.0
8569,23.0
8570,20.0
8571,15.0
8572,11.0
8573,8.0
8574,6.0
8575,4.0
8576,1.0
8577,3.0
8578,1.0
8579,1.0
8580,0.0
8581,0.0
8582,0.0
8583,0.0
8584,1.0
8585,0.0
8586,0.0
8587,0.0
8588,-1.0
8589,3.0
8590,0.0
8591,1.0
8592,1.0
8593,6.0
8594,0.0
8595,1.0
8596,2.0
8597,1.0
8598,0.0
8599,0.0
8600,0.0
8601,1.0
8602,-3.0
8603,-8.0
8604,-9.0
8605,-5.0
8606,0.0
8607,-7.0
8608,-4.0
8609,-3.0
8610,-2.0
8611,2.0
8612,6.0
8613,11.0
8614,16.0
8615,15.0
8616,18.0
8617,14.0
8618,11.0
8619,5.0
8620,0.0
8621,0.0
8622,-1.0
8623,-3.0
8624,-8.0
8625,-8.0
8626,-8.0
8627,-7.0
8628,-4.0
8629,-7.0
8630,-11.0
8631,-13.0
8632,-11.0
8633,-11.0
8634,0.0
8635,34.0
8636,60.0
8637,78.0
8638,60.0
8639,26.0
8640,0.0
8641,-6.0
8642,-11.0
8643,0.0
8644,-5.0
8645,-9.0
8646,-10.0
8647,-11.0
8648,-9.0
8649,-9.0
8650,-9.0
8651,-8.0
8652,-7.0
8653,-9.0
8654,-5.0
8655,-6.0
8656,-1.0
8657,-3.0
8658,-5.0
8659,-4.0
8660,-1.0
8661,1.0
8662,1.0
8663,6.0
8664,8.0
8665,13.0
8666,22.0
8667,24.0
8668,21.0
8669,27.0
8670,31.0
8671,33.0
8672,15.0
8673,16.0
8674,10.0
8675,-3.0
8676,-2.0
8677,0.0
8678,1.0
8679,4.0
8680,1.0
8681,0.0
8682,-3.0
8683,-3.0
8684,-5.0
8685,-3.0
8686,-8.0
8687,-7.0
8688,0.0
8689,-2.0
8690,0.0
8691,5.0
8692,10.0
8693,6.0
8694,9.0
8695,5.0
8696,4.0
8697,1.0
8698,2.0
8699,-1.0
8700,-1.0
8701,-5.0
8702,-9.0
8703,-8.0
8704,0.0
8705,-15.0
8706,-1.0
8707,-14.0
8708,-11.0
8709,-14.0
8710,-16.0
8711,-13.0
8712,-6.0
8713,-4.0
8714,-7.0
8715,-1.0
8716,0.0
8717,8.0
8718,8.0
8719,6.0
8720,4.0
8721,5.0
8722,2.0
8723,3.0
8724,0.0
8725,-6.0
8726,-7.0
8727,-4.0
8728,-10.0
8729,-7.0
8730,-6.0
8731,-1.0
8732,-7.0
8733,-8.0
8734,-13.0
8735,-8.0
8736,7.0
8737,36.0
8738,50.0
8739,46.0
8740,25.0
8741,-5.0
8742,-21.0
8743,-26.0
8744,-17.0
8745,-19.0
8746,-15.0
8747,-17.0
8748,-10.0
8749,-11.0
8750,-1.0
8751,0.0
8752,10.0
8753,13.0
8754,19.0
8755,16.0
8756,12.0
8757,8.0
8758,6.0
8759,2.0
8760,0.0
8761,4.0
8762,6.0
8763,12.0
8764,17.0
8765,23.0
8766,29.0
8767,28.0
8768,36.0
8769,45.0
8770,47.0
8771,41.0
8772,43.0
8773,36.0
8774,26.0
8775,23.0
8776,17.0
8777,14.0
8778,10.0
8779,2.0
8780,2.0
8781,1.0
8782,2.0
8783,0.0
8784,0.0
8785,0.0
8786,-2.0
8787,0.0
8788,0.0
8789,2.0
8790,0.0
8791,-1.0
8792,-9.0
8793,-1.0
8794,5.0
8795,15.0
8796,9.0
8797,11.0
8798,8.0
8799,16.0
8800,5.0
8801,11.0
8802,7.0
8803,6.0
8804,0.0
8805,-4.0
8806,-1.0
8807,4.0
8808,-2.0
8809,-4.0
8810,-4.0
8811,7.0
8812,7.0
8813,-2.0
8814,-15.0
8815,-14.0
8816,12.0
8817,6.0
8818,10.0
8819,18.0
8820,22.0
8821,8.0
8822,17.0
8823,6.0
8824,2.0
8825,-1.0
8826,-2.0
8827,-9.0
8828,-4.0
8829,-5.0
8830,-5.0
8831,-8.0
8832,-12.0
8833,-13.0
8834,-12.0
8835,-12.0
8836,-14.0
8837,-14.0
8838,-15.0
8839,0.0
8840,32.0
8841,70.0
8842,82.0
8843,84.0
8844,50.0
8845,24.0
8846,8.0
8847,0.0
8848,-1.0
8849,-8.0
8850,-16.0
8851,-20.0
8852,-23.0
8853,-23.0
8854,-24.0
8855,-24.0
8856,-23.0
8857,-22.0
8858,-25.0
8859,-21.0
8860,-21.0
8861,-11.0
8862,-13.0
8863,-6.0
8864,0.0
8865,6.0
8866,3.0
8867,1.0
8868,18.0
8869,27.0
8870,31.0
8871,30.0
8872,31.0
8873,28.0
8874,35.0
8875,27.0
8876,28.0
8877,21.0
8878,12.0
8879,8.0
8880,6.0
8881,3.0
8882,2.0
8883,0.0
8884,0.0
8885,0.0
8886,-2.0
8887,-4.0
8888,-7.0
8889,-16.0
8890,-17.0
8891,-17.0
8892,-19.0
8893,-17.0
8894,-12.0
8895,-5.0
8896,-10.0
8897,-6.0
8898,-8.0
8899,-7.0
8900,-3.0
8901,-3.0
8902,0.0
8903,5.0
8904,9.0
8905,10.0
8906,7.0
8907,6.0
8908,8.0
8909,9.0
8910,5.0
8911,4.0
8912,4.0
8913,7.0
8914,4.0
8915,0.0
8916,-10.0
8917,1.0
8918,5.0
8919,7.0
8920,3.0
8921,9.0
8922,17.0
8923,17.0
8924,10.0
8925,5.0
8926,0.0
8927,-4.0
8928,-7.0
8929,-7.0
8930,2.0
8931,-4.0
8932,0.0
8933,6.0
8934,1.0
8935,-7.0
8936,7.0
8937,-1.0
8938,-3.0
8939,-10.0
8940,-10.0
8941,0.0
8942,13.0
8943,45.0
8944,78.0
8945,91.0
8946,82.0
8947,45.0
8948,13.0
8949,-3.0
8950,0.0
8951,-2.0
8952,-2.0
8953,-6.0
8954,-4.0
8955,-7.0
8956,-6.0
8957,-10.0
8958,0.0
8959,-4.0
8960,3.0
8961,3.0
8962,3.0
8963,3.0
8964,3.0
8965,3.0
8966,3.0
8967,4.0
8968,5.0
8969,5.0
8970,5.0
8971,4.0
8972,4.0
8973,5.0
8974,5.0
8975,5.0
8976,5.0
8977,5.0
8978,5.0
8979,6.0
8980,5.0
8981,5.0
8982,6.0
8983,7.0
8984,9.0
8985,11.0
8986,13.0
8987,15.0
8988,14.0
8989,13.0
8990,11.0
8991,9.0
8992,6.0
8993,5.0
8994,6.0
8995,6.0
8996,7.0
8997,7.0
8998,7.0
8999,10.0
9000,25.0
9001,52.0
9002,85.0
9003,114.0
9004,135.0
9005,142.0
9006,140.0
9007,131.0
9008,118.0
9009,100.0
9010,77.0
9011,48.0
9012,20.0
9013,0.0
9014,-9.0
9015,-14.0
9016,-16.0
9017,-17.0
9018,-16.0
9019,-16.0
9020,-15.0
9021,-15.0
9022,-16.0
9023,-17.0
9024,-17.0
9025,-16.0
9026,-16.0
9027,-17.0
9028,-19.0
9029,-21.0
9030,-21.0
9031,-22.0
9032,-23.0
9033,-25.0
9034,-24.0
9035,-23.0
9036,-21.0
9037,-16.0
9038,-10.0
9039,-5.0
9040,0.0
9041,4.0
9042,6.0
9043,7.0
9044,6.0
9045,5.0
9046,5.0
9047,5.0
9048,5.0
9049,5.0
9050,5.0
9051,5.0
9052,5.0
9053,5.0
9054,4.0
9055,4.0
9056,4.0
9057,4.0
9058,4.0
9059,3.0
9060,3.0
9061,3.0
9062,3.0
9063,3.0
9064,3.0
9065,3.0
9066,3.0
9067,3.0
9068,3.0
9069,3.0
9070,3.0
9071,3.0
9072,3.0
9073,3.0
9074,3.0
9075,3.0
9076,3.0
9077,3.0
9078,2.0
9079,2.0
9080,3.0
9081,3.0
9082,3.0
9083,3.0
9084,4.0
9085,6.0
9086,7.0
9087,8.0
9088,8.0
9089,8.0
9090,7.0
9091,6.0
9092,4.0
9093,2.0
9094,2.0
9095,2.0
9096,1.0
9097,0.0
9098,0.0
9099,0.0
9100,6.0
9101,21.0
9102,50.0
9103,81.0
9104,108.0
9105,125.0
9106,132.0
9107,129.0
9108,120.0
9109,105.0
9110,86.0
9111,62.0
9112,34.0
9113,8.0
9114,-11.0
9115,-20.0
9116,-24.0
9117,-26.0
9118,-26.0
9119,-26.0
9120,-26.0
9121,-27.0
9122,-27.0
9123,-27.0
9124,-27.0
9125,-27.0
9126,-28.0
9127,-29.0
9128,-30.0
9129,-31.0
9130,-32.0
9131,-33.0
9132,-35.0
9133,-36.0
9134,-37.0
9135,-37.0
9136,-36.0
9137,-32.0
9138,-27.0
9139,-22.0
9140,-16.0
9141,-9.0
9142,-4.0
9143,0.0
9144,0.0
9145,1.0
9146,1.0
9147,0.0
9148,0.0
9149,0.0
9150,0.0
9151,-1.0
9152,0.0
9153,0.0
9154,0.0
9155,0.0
9156,0.0
9157,0.0
9158,-1.0
9159,0.0
9160,0.0
9161,0.0
9162,0.0
9163,0.0
9164,0.0
9165,-1.0
9166,-1.0
9167,-1.0
9168,0.0
9169,0.0
9170,0.0
9171,0.0
9172,0.0
9173,0.0
9174,0.0
9175,0.0
9176,1.0
9177,0.0
9178,0.0
9179,0.0
9180,0.0
9181,0.0
9182,0.0
9183,0.0
9184,0.0
9185,0.0
9186,1.0
9187,3.0
9188,4.0
9189,5.0
9190,6.0
9191,7.0
9192,5.0
9193,3.0
9194,2.0
9195,1.0
9196,0.0
9197,0.0
9198,0.0
9199,-1.0
9200,-1.0
9201,0.0
9202,3.0
9203,19.0
9204,46.0
9205,77.0
9206,106.0
9207,125.0
9208,132.0
9209,128.0
9210,117.0
9211,102.0
9212,82.0
9213,57.0
9214,28.0
9215,1.0
9216,-15.0
9217,-23.0
9218,-26.0
9219,-27.0
9220,-27.0
9221,-27.0
9222,-27.0
9223,-27.0
9224,-27.0
9225,-28.0
9226,-29.0
9227,-30.0
9228,-30.0
9229,-30.0
9230,-31.0
9231,-32.0
9232,-34.0
9233,-35.0
9234,-36.0
9235,-37.0
9236,-37.0
9237,-36.0
9238,-34.0
9239,-30.0
9240,-27.0
9241,-22.0
9242,-17.0
9243,-11.0
9244,-6.0
9245,-2.0
9246,0.0
9247,0.0
9248,0.0
9249,0.0
9250,0.0
9251,0.0
9252,0.0
9253,0.0
9254,0.0
9255,0.0
9256,0.0
9257,0.0
9258,0.0
9259,0.0
9260,0.0
9261,0.0
9262,0.0
9263,0.0
9264,0.0
9265,0.0
9266,0.0
9267,0.0
9268,0.0
9269,0.0
9270,0.0
9271,0.0
9272,0.0
9273,0.0
9274,0.0
9275,0.0
9276,0.0
9277,0.0
9278,0.0
9279,0.0
9280,0.0
9281,0.0
9282,0.0
9283,0.0
9284,0.0
9285,0.0
9286,0.0
9287,1.0
9288,3.0
9289,4.0
9290,5.0
9291,7.0
9292,7.0
9293,6.0
9294,4.0
9295,3.0
9296,0.0
9297,0.0
9298,0.0
9299,0.0
9300,0.0
9301,-1.0
9302,-1.0
9303,0.0
9304,7.0
9305,29.0
9306,61.0
9307,92.0
9308,117.0
9309,130.0
9310,131.0
9311,124.0
9312,110.0
9313,93.0
9314,69.0
9315,42.0
9316,14.0
9317,-7.0
9318,-19.0
9319,-25.0
9320,-27.0
9321,-27.0
9322,-27.0
9323,-26.0
9324,-26.0
9325,-26.0
9326,-26.0
9327,-27.0
9328,-27.0
9329,-28.0
9330,-28.0
9331,-29.0
9332,-30.0
9333,-31.0
9334,-31.0
9335,-32.0
9336,-33.0
9337,-34.0
9338,-35.0
9339,-34.0
9340,-31.0
9341,-28.0
9342,-23.0
9343,-18.0
9344,-13.0
9345,-6.0
9346,-1.0
9347,0.0
9348,1.0
9349,2.0
9350,2.0
9351,2.0
9352,2.0
9353,1.0
9354,0.0
9355,0.0
9356,0.0
9357,1.0
9358,0.0
9359,0.0
9360,0.0
9361,0.0
9362,0.0
9363,0.0
9364,0.0
9365,0.0
9366,0.0
9367,0.0
9368,0.0
9369,0.0
9370,0.0
9371,0.0
9372,0.0
9373,1.0
9374,1.0
9375,0.0
9376,0.0
9377,0.0
9378,0.0
9379,0.0
9380,0.0
9381,0.0
9382,0.0
9383,0.0
9384,0.0
9385,1.0
9386,2.0
9387,2.0
9388,3.0
9389,4.0
9390,4.0
9391,5.0
9392,6.0
9393,6.0
9394,5.0
9395,4.0
9396,1.0
9397,0.0
9398,0.0
9399,0.0
9400,0.0
9401,0.0
9402,0.0
9403,0.0
9404,6.0
9405,25.0
9406,55.0
9407,87.0
9408,114.0
9409,129.0
9410,132.0
9411,125.0
9412,114.0
9413,98.0
9414,76.0
9415,48.0
9416,20.0
9417,-3.0
9418,-18.0
9419,-24.0
9420,-27.0
9421,-26.0
9422,-26.0
9423,-26.0
9424,-26.0
9425,-26.0
9426,-26.0
9427,-26.0
9428,-25.0
9429,-25.0
9430,-26.0
9431,-28.0
9432,-29.0
9433,-29.0
9434,-29.0
9435,-30.0
9436,-31.0
9437,-31.0
9438,-32.0
9439,-31.0
9440,-29.0
9441,-26.0
9442,-22.0
9443,-16.0
9444,-9.0
9445,-3.0
9446,0.0
9447,3.0
9448,5.0
9449,5.0
9450,4.0
9451,4.0
9452,4.0
9453,4.0
9454,4.0
9455,5.0
9456,5.0
9457,4.0
9458,4.0
9459,5.0
9460,5.0
9461,5.0
9462,5.0
9463,5.0
9464,5.0
9465,6.0
9466,6.0
9467,6.0
9468,7.0
9469,6.0
9470,6.0
9471,7.0
9472,7.0
9473,7.0
9474,7.0
9475,7.0
9476,7.0
9477,8.0
9478,8.0
9479,8.0
9480,8.0
9481,8.0
9482,8.0
9483,8.0
9484,9.0
9485,11.0
9486,13.0
9487,15.0
9488,16.0
9489,17.0
9490,16.0
9491,15.0
9492,13.0
9493,10.0
9494,9.0
9495,8.0
9496,8.0
9497,8.0
9498,8.0
9499,8.0
9500,9.0
9501,18.0
9502,39.0
9503,70.0
9504,101.0
9505,126.0
9506,141.0
9507,144.0
9508,140.0
9509,131.0
9510,115.0
9511,95.0
9512,69.0
9513,38.0
9514,12.0
9515,-3.0
9516,-10.0
9517,-12.0
9518,-13.0
9519,-14.0
9520,-15.0
9521,-16.0
9522,-17.0
9523,-17.0
9524,-17.0
9525,-18.0
9526,-19.0
9527,-20.0
9528,-20.0
9529,-21.0
9530,-22.0
9531,-24.0
9532,-25.0
9533,-27.0
9534,-29.0
9535,-30.0
9536,-29.0
9537,-28.0
9538,-25.0
9539,-20.0
9540,-15.0
9541,-8.0
9542,-2.0
9543,2.0
9544,5.0
9545,5.0
9546,5.0
9547,5.0
9548,4.0
9549,3.0
9550,3.0
9551,3.0
9552,3.0
9553,3.0
9554,3.0
9555,3.0
9556,3.0
9557,3.0
9558,3.0
9559,3.0
9560,3.0
9561,3.0
9562,2.0
9563,2.0
9564,2.0
9565,2.0
9566,3.0
9567,3.0
9568,3.0
9569,3.0
9570,3.0
9571,3.0
9572,3.0
9573,2.0
9574,2.0
9575,2.0
9576,2.0
9577,2.0
9578,2.0
9579,3.0
9580,3.0
9581,3.0
9582,3.0
9583,3.0
9584,5.0
9585,6.0
9586,7.0
9587,8.0
9588,8.0
9589,6.0
9590,5.0
9591,4.0
9592,2.0
9593,2.0
9594,2.0
9595,1.0
9596,1.0
9597,0.0
9598,0.0
9599,2.0
9600,12.0
9601,36.0
9602,67.0
9603,98.0
9604,121.0
9605,131.0
9606,132.0
9607,124.0
9608,112.0
9609,95.0
9610,71.0
9611,44.0
9612,16.0
9613,-5.0
9614,-18.0
9615,-23.0
9616,-26.0
9617,-27.0
9618,-27.0
9619,-27.0
9620,-27.0
9621,-27.0
9622,-27.0
9623,-27.0
9624,-27.0
9625,-28.0
9626,-29.0
9627,-30.0
9628,-31.0
9629,-31.0
9630,-32.0
9631,-34.0
9632,-35.0
9633,-35.0
9634,-35.0
9635,-34.0
9636,-33.0
9637,-30.0
9638,-24.0
9639,-17.0
9640,-11.0
9641,-4.0
9642,0.0
9643,1.0
9644,2.0
9645,3.0
9646,2.0
9647,2.0
9648,1.0
9649,0.0
9650,0.0
9651,0.0
9652,0.0
9653,0.0
9654,0.0
9655,0.0
9656,0.0
9657,0.0
9658,1.0
9659,2.0
9660,2.0
9661,1.0
9662,1.0
9663,0.0
9664,0.0
9665,0.0
9666,0.0
9667,2.0
9668,2.0
9669,2.0
9670,2.0
9671,2.0
9672,2.0
9673,1.0
9674,0.0
9675,0.0
9676,0.0
9677,0.0
9678,0.0
9679,1.0
9680,2.0
9681,3.0
9682,5.0
9683,6.0
9684,7.0
9685,7.0
9686,7.0
9687,5.0
9688,3.0
9689,1.0
9690,0.0
9691,0.0
9692,0.0
9693,0.0
9694,0.0
9695,0.0
9696,0.0
9697,10.0
9698,32.0
9699,62.0
9700,92.0
9701,116.0
9702,129.0
9703,131.0
9704,124.0
9705,111.0
9706,93.0
9707,70.0
9708,44.0
9709,17.0
9710,-5.0
9711,-18.0
9712,-23.0
9713,-25.0
9714,-27.0
9715,-26.0
9716,-26.0
9717,-26.0
9718,-26.0
9719,-26.0
9720,-26.0
9721,-26.0
9722,-27.0
9723,-29.0
9724,-29.0
9725,-30.0
9726,-31.0
9727,-32.0
9728,-34.0
9729,-34.0
9730,-35.0
9731,-35.0
9732,-34.0
9733,-32.0
9734,-28.0
9735,-22.0
9736,-17.0
9737,-11.0
9738,-5.0
9739,-1.0
9740,2.0
9741,3.0
9742,2.0
9743,1.0
9744,1.0
9745,1.0
9746,1.0
9747,1.0
9748,0.0
9749,0.0
9750,0.0
9751,0.0
9752,0.0
9753,0.0
9754,0.0
9755,0.0
9756,0.0
9757,0.0
9758,0.0
9759,0.0
9760,0.0
9761,0.0
9762,0.0
9763,0.0
9764,1.0
9765,2.0
9766,1.0
9767,1.0
9768,1.0
9769,1.0
9770,0.0
9771,0.0
9772,0.0
9773,1.0
9774,0.0
9775,0.0
9776,1.0
9777,1.0
9778,2.0
9779,3.0
9780,4.0
9781,6.0
9782,7.0
9783,6.0
9784,5.0
9785,4.0
9786,3.0
9787,2.0
9788,1.0
9789,0.0
9790,0.0
9791,0.0
9792,0.0
9793,0.0
9794,2.0
9795,13.0
9796,36.0
9797,67.0
9798,96.0
9799,119.0
9800,130.0
9801,131.0
9802,123.0
9803,110.0
9804,91.0
9805,68.0
9806,40.0
9807,12.0
9808,-8.0
9809,-18.0
9810,-23.0
9811,-25.0
9812,-25.0
9813,-25.0
9814,-25.0
9815,-25.0
9816,-25.0
9817,-25.0
9818,-26.0
9819,-25.0
9820,-25.0
9821,-26.0
9822,-27.0
9823,-28.0
9824,-30.0
9825,-31.0
9826,-32.0
9827,-33.0
9828,-34.0
9829,-33.0
9830,-32.0
9831,-30.0
9832,-27.0
9833,-22.0
9834,-16.0
9835,-10.0
9836,-4.0
9837,-1.0
9838,0.0
9839,1.0
9840,2.0
9841,2.0
9842,2.0
9843,2.0
9844,2.0
9845,2.0
9846,2.0
9847,1.0
9848,0.0
9849,0.0
9850,0.0
9851,0.0
9852,0.0
9853,2.0
9854,1.0
9855,1.0
9856,1.0
9857,1.0
9858,2.0
9859,2.0
9860,2.0
9861,2.0
9862,2.0
9863,2.0
9864,2.0
9865,2.0
9866,1.0
9867,1.0
9868,0.0
9869,0.0
9870,0.0
9871,1.0
9872,2.0
9873,2.0
9874,1.0
9875,2.0
9876,4.0
9877,5.0
9878,6.0
9879,7.0
9880,7.0
9881,6.0
9882,5.0
9883,4.0
9884,2.0
9885,0.0
9886,0.0
9887,0.0
9888,0.0
9889,1.0
9890,1.0
9891,2.0
9892,11.0
9893,32.0
9894,63.0
9895,94.0
9896,118.0
9897,132.0
9898,132.0
9899,124.0
9900,110.0
9901,92.0
9902,70.0
9903,43.0
9904,16.0
9905,-4.0
9906,-16.0
9907,-21.0
9908,-22.0
9909,-23.0
9910,-24.0
9911,-24.0
9912,-24.0
9913,-24.0
9914,-24.0
9915,-24.0
9916,-23.0
9917,-23.0
9918,-23.0
9919,-24.0
9920,-25.0
9921,-26.0
9922,-26.0
9923,-28.0
9924,-29.0
9925,-30.0
9926,-30.0
9927,-29.0
9928,-27.0
9929,-23.0
9930,-18.0
9931,-12.0
9932,-5.0
9933,0.0
9934,5.0
9935,6.0
9936,6.0
9937,5.0
9938,5.0
9939,5.0
9940,5.0
9941,5.0
9942,5.0
9943,5.0
9944,5.0
9945,5.0
9946,5.0
9947,5.0
9948,5.0
9949,5.0
9950,6.0
9951,7.0
9952,7.0
9953,7.0
9954,7.0
9955,7.0
9956,8.0
9957,7.0
9958,7.0
9959,7.0
9960,7.0
9961,8.0
9962,8.0
9963,8.0
9964,8.0
9965,8.0
9966,8.0
9967,8.0
9968,9.0
9969,9.0
9970,9.0
9971,9.0
9972,9.0
9973,10.0
9974,11.0
9975,13.0
9976,16.0
9977,18.0
9978,18.0
9979,17.0
9980,15.0
9981,14.0
9982,12.0
9983,10.0
9984,9.0
9985,9.0
9986,9.0
9987,9.0
9988,9.0
9989,9.0
9990,16.0
9991,38.0
9992,68.0
9993,100.0
9994,126.0
9995,141.0
9996,145.0
9997,140.0
9998,129.0
9999,114.0
10000,94.0
10001,67.0
10002,37.0
10003,10.0
10004,-6.0
10005,-14.0
10006,-17.0
10007,-19.0
10008,-19.0
10009,-19.0
10010,-19.0
10011,-19.0
10012,-20.0
10013,-20.0
10014,-21.0
10015,-22.0
10016,-23.0
10017,-24.0
10018,-25.0
10019,-27.0
10020,-29.0
10021,-30.0
10022,-31.0
10023,-32.0
10024,-33.0
10025,-32.0
10026,-30.0
10027,-27.0
10028,-23.0
10029,-17.0
10030,-10.0
10031,-3.0
10032,0.0
10033,1.0
10034,3.0
10035,4.0
10036,3.0
10037,3.0
10038,3.0
10039,3.0
10040,3.0
10041,2.0
10042,2.0
10043,2.0
10044,2.0
10045,2.0
10046,2.0
10047,1.0
10048,1.0
10049,2.0
10050,2.0
10051,2.0
10052,2.0
10053,2.0
10054,2.0
10055,3.0
10056,2.0
10057,2.0
10058,1.0
10059,0.0
10060,0.0
10061,0.0
10062,0.0
10063,2.0
10064,2.0
10065,2.0
10066,2.0
10067,3.0
10068,2.0
10069,1.0
10070,1.0
10071,1.0
10072,2.0
10073,3.0
10074,4.0
10075,6.0
10076,7.0
10077,8.0
10078,7.0
10079,5.0
10080,4.0
10081,3.0
10082,2.0
10083,2.0
10084,2.0
10085,1.0
10086,0.0
10087,0.0
10088,2.0
10089,12.0
10090,35.0
10091,66.0
10092,95.0
10093,116.0
10094,128.0
10095,129.0
10096,121.0
10097,109.0
10098,92.0
10099,70.0
10100,43.0
10101,15.0
10102,-6.0
10103,-19.0
10104,-24.0
10105,-27.0
10106,-26.0
10107,-26.0
10108,-26.0
10109,-27.0
10110,-27.0
10111,-27.0
10112,-27.0
10113,-27.0
10114,-27.0
10115,-28.0
10116,-29.0
10117,-30.0
10118,-31.0
10119,-32.0
10120,-33.0
10121,-35.0
10122,-36.0
10123,-36.0
10124,-35.0
10125,-32.0
10126,-29.0
10127,-24.0
10128,-18.0
10129,-12.0
10130,-6.0
10131,-1.0
10132,0.0
10133,1.0
10134,1.0
10135,0.0
10136,0.0
10137,0.0
10138,0.0
10139,0.0
10140,0.0
10141,0.0
10142,0.0
10143,0.0
10144,0.0
10145,0.0
10146,0.0
10147,0.0
10148,0.0
10149,0.0
10150,0.0
10151,0.0
10152,0.0
10153,0.0
10154,0.0
10155,0.0
10156,0.0
10157,0.0
10158,0.0
10159,0.0
10160,0.0
10161,0.0
10162,0.0
10163,0.0
10164,0.0
10165,0.0
10166,0.0
10167,0.0
10168,0.0
10169,0.0
10170,0.0
10171,0.0
10172,0.0
10173,1.0
10174,2.0
10175,3.0
10176,5.0
10177,6.0
10178,7.0
10179,6.0
10180,5.0
10181,3.0
10182,1.0
10183,0.0
10184,0.0
10185,0.0
10186,0.0
10187,0.0
10188,0.0
10189,1.0
10190,9.0
10191,29.0
10192,60.0
10193,90.0
10194,114.0
10195,127.0
10196,129.0
10197,121.0
10198,110.0
10199,93.0
10200,72.0
10201,44.0
10202,16.0
10203,-5.0
10204,-18.0
10205,-23.0
10206,-25.0
10207,-26.0
10208,-26.0
10209,-25.0
10210,-25.0
10211,-26.0
10212,-25.0
10213,-25.0
10214,-25.0
10215,-26.0
10216,-27.0
10217,-28.0
10218,-28.0
10219,-29.0
10220,-30.0
10221,-31.0
10222,-32.0
10223,-34.0
10224,-35.0
10225,-34.0
10226,-33.0
10227,-29.0
10228,-24.0
10229,-18.0
10230,-13.0
10231,-6.0
10232,-1.0
10233,0.0
10234,2.0
10235,1.0
10236,1.0
10237,1.0
10238,0.0
10239,0.0
10240,-50.0
10241,-48.0
10242,-49.0
10243,-50.0
10244,-47.0
10245,-50.0
10246,-48.0
10247,-44.0
10248,-38.0
10249,-31.0
10250,-28.0
10251,-25.0
10252,-27.0
10253,-28.0
10254,-29.0
10255,-33.0
10256,-35.0
10257,-28.0
10258,-27.0
10259,-30.0
10260,-40.0
10261,-51.0
10262,-53.0
10263,-56.0
10264,-56.0
10265,-57.0
10266,-56.0
10267,-54.0
10268,-54.0
10269,-56.0
10270,-53.0
10271,-54.0
10272,-53.0
10273,-52.0
10274,-55.0
10275,-52.0
10276,-45.0
10277,-27.0
10278,-7.0
10279,-47.0
10280,-115.0
10281,-199.0
10282,-251.0
10283,-280.0
10284,-279.0
10285,-280.0
10286,-256.0
10287,-239.0
10288,-219.0
10289,-204.0
10290,-182.0
10291,-151.0
10292,-126.0
10293,-104.0
10294,-77.0
10295,-49.0
10296,-23.0
10297,-5.0
10298,3.0
10299,10.0
10300,17.0
10301,18.0
10302,23.0
10303,22.0
10304,24.0
10305,26.0
10306,28.0
10307,29.0
10308,31.0
10309,32.0
10310,33.0
10311,36.0
10312,39.0
10313,40.0
10314,42.0
10315,42.0
10316,42.0
10317,41.0
10318,39.0
10319,40.0
10320,34.0
10321,34.0
10322,34.0
10323,30.0
10324,27.0
10325,25.0
10326,20.0
10327,14.0
10328,13.0
10329,4.0
10330,0.0
10331,0.0
10332,-10.0
10333,-17.0
10334,-21.0
10335,-22.0
10336,-28.0
10337,-30.0
10338,-32.0
10339,-33.0
10340,-35.0
10341,-35.0
10342,-36.0
10343,-38.0
10344,-39.0
10345,-38.0
10346,-34.0
10347,-29.0
10348,-32.0
10349,-30.0
10350,-31.0
10351,-34.0
10352,-33.0
10353,-36.0
10354,-34.0
10355,-32.0
10356,-35.0
10357,-37.0
10358,-37.0
10359,-38.0
10360,-40.0
10361,-38.0
10362,-41.0
10363,-41.0
10364,-37.0
10365,-40.0
10366,-40.0
10367,-45.0
10368,-43.0
10369,-45.0
10370,-45.0
10371,-41.0
10372,-38.0
10373,-29.0
10374,-26.0
10375,-23.0
10376,-20.0
10377,-21.0
10378,-21.0
10379,-24.0
10380,-28.0
10381,-29.0
10382,-25.0
10383,-21.0
10384,-25.0
10385,-37.0
10386,-46.0
10387,-48.0
10388,-47.0
10389,-44.0
10390,-47.0
10391,-48.0
10392,-47.0
10393,-46.0
10394,-46.0
10395,-44.0
10396,-46.0
10397,-45.0
10398,-42.0
10399,-46.0
10400,-44.0
10401,-36.0
10402,-15.0
10403,-4.0
10404,-45.0
10405,-114.0
10406,-194.0
10407,-248.0
10408,-279.0
10409,-287.0
10410,-268.0
10411,-242.0
10412,-221.0
10413,-198.0
10414,-189.0
10415,-165.0
10416,-125.0
10417,-97.0
10418,-77.0
10419,-52.0
10420,-23.0
10421,-2.0
10422,15.0
10423,27.0
10424,30.0
10425,33.0
10426,36.0
10427,39.0
10428,40.0
10429,44.0
10430,46.0
10431,48.0
10432,51.0
10433,52.0
10434,49.0
10435,53.0
10436,58.0
10437,60.0
10438,58.0
10439,58.0
10440,60.0
10441,62.0
10442,61.0
10443,63.0
10444,61.0
10445,56.0
10446,57.0
10447,54.0
10448,49.0
10449,47.0
10450,41.0
10451,42.0
10452,33.0
10453,29.0
10454,23.0
10455,20.0
10456,16.0
10457,14.0
10458,4.0
10459,1.0
10460,-5.0
10461,-6.0
10462,-9.0
10463,-14.0
10464,-10.0
10465,-11.0
10466,-10.0
10467,-9.0
10468,-9.0
10469,-8.0
10470,-8.0
10471,-9.0
10472,-8.0
10473,-8.0
10474,-7.0
10475,-8.0
10476,-9.0
10477,-14.0
10478,-12.0
10479,-15.0
10480,-15.0
10481,-12.0
10482,-16.0
10483,-18.0
10484,-19.0
10485,-21.0
10486,-20.0
10487,-19.0
10488,-21.0
10489,-25.0
10490,-21.0
10491,-25.0
10492,-28.0
10493,-27.0
10494,-19.0
10495,-26.0
10496,-15.0
10497,-12.0
10498,-12.0
10499,-6.0
10500,-7.0
10501,-8.0
10502,-10.0
10503,-9.0
10504,-17.0
10505,-12.0
10506,-1.0
10507,-8.0
10508,-18.0
10509,-30.0
10510,-31.0
10511,-36.0
10512,-37.0
10513,-38.0
10514,-38.0
10515,-36.0
10516,-33.0
10517,-31.0
10518,-35.0
10519,-33.0
10520,-32.0
10521,-33.0
10522,-34.0
10523,-30.0
10524,-26.0
10525,-9.0
10526,13.0
10527,-14.0
10528,-76.0
10529,-168.0
10530,-233.0
10531,-268.0
10532,-284.0
10533,-276.0
10534,-246.0
10535,-223.0
10536,-199.0
10537,-192.0
10538,-171.0
10539,-126.0
10540,-102.0
10541,-78.0
10542,-53.0
10543,-26.0
10544,-3.0
10545,13.0
10546,26.0
10547,33.0
10548,34.0
10549,37.0
10550,40.0
10551,42.0
10552,41.0
10553,45.0
10554,47.0
10555,47.0
10556,47.0
10557,51.0
10558,52.0
10559,53.0
10560,55.0
10561,56.0
10562,56.0
10563,55.0
10564,58.0
10565,57.0
10566,55.0
10567,54.0
10568,51.0
10569,50.0
10570,48.0
10571,43.0
10572,41.0
10573,39.0
10574,33.0
10575,29.0
10576,24.0
10577,18.0
10578,13.0
10579,5.0
10580,0.0
10581,-5.0
10582,-7.0
10583,-11.0
10584,-17.0
10585,-15.0
10586,-17.0
10587,-21.0
10588,-21.0
10589,-22.0
10590,-22.0
10591,-23.0
10592,-22.0
10593,-23.0
10594,-23.0
10595,-22.0
10596,-21.0
10597,-20.0
10598,-20.0
10599,-22.0
10600,-22.0
10601,-29.0
10602,-26.0
10603,-28.0
10604,-30.0
10605,-31.0
10606,-33.0
10607,-35.0
10608,-37.0
10609,-38.0
10610,-36.0
10611,-37.0
10612,-41.0
10613,-39.0
10614,-38.0
10615,-39.0
10616,-42.0
10617,-38.0
10618,-39.0
10619,-35.0
10620,-29.0
10621,-26.0
10622,-25.0
10623,-16.0
10624,-17.0
10625,-20.0
10626,-23.0
10627,-28.0
10628,-32.0
10629,-28.0
10630,-18.0
10631,-27.0
10632,-39.0
10633,-50.0
10634,-56.0
10635,-55.0
10636,-54.0
10637,-55.0
10638,-55.0
10639,-56.0
10640,-51.0
10641,-55.0
10642,-52.0
10643,-54.0
10644,-54.0
10645,-51.0
10646,-55.0
10647,-52.0
10648,-44.0
10649,-17.0
10650,-12.0
10651,-48.0
10652,-125.0
10653,-208.0
10654,-253.0
10655,-283.0
10656,-287.0
10657,-285.0
10658,-259.0
10659,-247.0
10660,-226.0
10661,-209.0
10662,-185.0
10663,-152.0
10664,-124.0
10665,-104.0
10666,-75.0
10667,-48.0
10668,-23.0
10669,-4.0
10670,0.0
10671,5.0
10672,12.0
10673,16.0
10674,19.0
10675,20.0
10676,21.0
10677,25.0
10678,27.0
10679,29.0
10680,32.0
10681,30.0
10682,35.0
10683,33.0
10684,35.0
10685,38.0
10686,36.0
10687,38.0
10688,38.0
10689,36.0
10690,38.0
10691,35.0
10692,35.0
10693,32.0
10694,30.0
10695,22.0
10696,22.0
10697,20.0
10698,15.0
10699,12.0
10700,4.0
10701,1.0
10702,-3.0
10703,-9.0
10704,-14.0
10705,-21.0
10706,-25.0
10707,-30.0
10708,-35.0
10709,-42.0
10710,-40.0
10711,-40.0
10712,-44.0
10713,-43.0
10714,-41.0
10715,-39.0
10716,-39.0
10717,-39.0
10718,-40.0
10719,-40.0
10720,-40.0
10721,-42.0
10722,-44.0
10723,-43.0
10724,-44.0
10725,-47.0
10726,-47.0
10727,-47.0
10728,-47.0
10729,-49.0
10730,-49.0
10731,-52.0
10732,-51.0
10733,-52.0
10734,-52.0
10735,-54.0
10736,-52.0
10737,-56.0
10738,-55.0
10739,-57.0
10740,-57.0
10741,-56.0
10742,-52.0
10743,-48.0
10744,-43.0
10745,-41.0
10746,-38.0
10747,-32.0
10748,-35.0
10749,-38.0
10750,-42.0
10751,-45.0
10752,-48.0
10753,-39.0
10754,-33.0
10755,-47.0
10756,-55.0
10757,-67.0
10758,-70.0
10759,-68.0
10760,-68.0
10761,-70.0
10762,-67.0
10763,-71.0
10764,-68.0
10765,-67.0
10766,-70.0
10767,-64.0
10768,-64.0
10769,-66.0
10770,-67.0
10771,-64.0
10772,-47.0
10773,-20.0
10774,-50.0
10775,-102.0
10776,-192.0
10777,-264.0
10778,-299.0
10779,-312.0
10780,-302.0
10781,-268.0
10782,-247.0
10783,-229.0
10784,-222.0
10785,-199.0
10786,-162.0
10787,-137.0
10788,-112.0
10789,-86.0
10790,-60.0
10791,-37.0
10792,-18.0
10793,-3.0
10794,1.0
10795,2.0
10796,7.0
10797,7.0
10798,10.0
10799,13.0
10800,13.0
10801,17.0
10802,17.0
10803,19.0
10804,21.0
10805,20.0
10806,27.0
10807,23.0
10808,23.0
10809,26.0
10810,26.0
10811,28.0
10812,27.0
10813,26.0
10814,25.0
10815,24.0
10816,22.0
10817,18.0
10818,14.0
10819,14.0
10820,11.0
10821,4.0
10822,4.0
10823,-3.0
10824,-6.0
10825,-8.0
10826,-15.0
10827,-22.0
10828,-25.0
10829,-33.0
10830,-35.0
10831,-39.0
10832,-39.0
10833,-41.0
10834,-42.0
10835,-50.0
10836,-50.0
10837,-46.0
10838,-47.0
10839,-48.0
10840,-47.0
10841,-47.0
10842,-50.0
10843,-50.0
10844,-46.0
10845,-45.0
10846,-49.0
10847,-49.0
10848,-53.0
10849,-55.0
10850,-53.0
10851,-53.0
10852,-59.0
10853,-58.0
10854,-57.0
10855,-62.0
10856,-60.0
10857,-63.0
10858,-62.0
10859,-63.0
10860,-59.0
10861,-64.0
10862,-64.0
10863,-62.0
10864,-64.0
10865,-69.0
10866,-67.0
10867,-65.0
10868,-61.0
10869,-56.0
10870,-49.0
10871,-49.0
10872,-44.0
10873,-40.0
10874,-40.0
10875,-46.0
10876,-46.0
10877,-56.0
10878,-46.0
10879,-45.0
10880,-48.0
10881,-63.0
10882,-73.0
10883,-78.0
10884,-77.0
10885,-76.0
10886,-74.0
10887,-75.0
10888,-75.0
10889,-76.0
10890,-76.0
10891,-76.0
10892,-74.0
10893,-74.0
10894,-75.0
10895,-74.0
10896,-74.0
10897,-67.0
10898,-45.0
10899,-27.0
10900,-59.0
10901,-126.0
10902,-212.0
10903,-274.0
10904,-308.0
10905,-328.0
10906,-316.0
10907,-287.0
10908,-264.0
10909,-238.0
10910,-231.0
10911,-205.0
10912,-172.0
10913,-143.0
10914,-118.0
10915,-98.0
10916,-69.0
10917,-45.0
10918,-26.0
10919,-11.0
10920,-6.0
10921,-1.0
10922,2.0
10923,4.0
10924,5.0
10925,10.0
10926,10.0
10927,13.0
10928,14.0
10929,14.0
10930,18.0
10931,19.0
10932,19.0
10933,19.0
10934,23.0
10935,21.0
10936,23.0
10937,21.0
10938,23.0
10939,17.0
10940,22.0
10941,19.0
10942,21.0
10943,20.0
10944,13.0
10945,15.0
10946,6.0
10947,3.0
10948,-1.0
10949,-2.0
10950,-8.0
10951,-10.0
10952,-16.0
10953,-20.0
10954,-26.0
10955,-26.0
10956,-34.0
10957,-33.0
10958,-41.0
10959,-44.0
10960,-41.0
10961,-45.0
10962,-46.0
10963,-46.0
10964,-46.0
10965,-46.0
10966,-49.0
10967,-44.0
10968,-47.0
10969,-47.0
10970,-45.0
10971,-45.0
10972,-46.0
10973,-49.0
10974,-49.0
10975,-46.0
10976,-50.0
10977,-52.0
10978,-49.0
10979,-53.0
10980,-55.0
10981,-53.0
10982,-55.0
10983,-55.0
10984,-57.0
10985,-55.0
10986,-56.0
10987,-56.0
10988,-56.0
10989,-55.0
10990,-57.0
10991,-55.0
10992,-55.0
10993,-55.0
10994,-50.0
10995,-38.0
10996,-37.0
10997,-34.0
10998,-34.0
10999,-36.0
11000,-37.0
11001,-39.0
11002,-45.0
11003,-39.0
11004,-36.0
11005,-36.0
11006,-45.0
11007,-58.0
11008,-65.0
11009,-63.0
11010,-66.0
11011,-66.0
11012,-63.0
11013,-62.0
11014,-60.0
11015,-61.0
11016,-59.0
11017,-59.0
11018,-58.0
11019,-57.0
11020,-56.0
11021,-58.0
11022,-49.0
11023,-19.0
11024,-15.0
11025,-55.0
11026,-136.0
11027,-213.0
11028,-263.0
11029,-285.0
11030,-287.0
11031,-278.0
11032,-257.0
11033,-241.0
11034,-216.0
11035,-202.0
11036,-169.0
11037,-140.0
11038,-113.0
11039,-88.0
11040,-62.0
11041,-30.0
11042,-9.0
11043,4.0
11044,12.0
11045,20.0
11046,23.0
11047,29.0
11048,30.0
11049,31.0
11050,35.0
11051,38.0
11052,39.0
11053,40.0
11054,44.0
11055,43.0
11056,44.0
11057,47.0
11058,51.0
11059,54.0
11060,57.0
11061,54.0
11062,60.0
11063,57.0
11064,57.0
11065,51.0
11066,51.0
11067,49.0
11068,50.0
11069,44.0
11070,42.0
11071,34.0
11072,33.0
11073,29.0
11074,22.0
11075,20.0
11076,15.0
11077,7.0
11078,5.0
11079,0.0
11080,-5.0
11081,-11.0
11082,-15.0
11083,-15.0
11084,-17.0
11085,-21.0
11086,-17.0
11087,-18.0
11088,-19.0
11089,-23.0
11090,-21.0
11091,-18.0
11092,-20.0
11093,-22.0
11094,-21.0
11095,-19.0
11096,-24.0
11097,-22.0
11098,-25.0
11099,-26.0
11100,-27.0
11101,-26.0
11102,-28.0
11103,-33.0
11104,-31.0
11105,-32.0
11106,-36.0
11107,-34.0
11108,-34.0
11109,-41.0
11110,-38.0
11111,-40.0
11112,-40.0
11113,-40.0
11114,-43.0
11115,-40.0
11116,-38.0
11117,-38.0
11118,-32.0
11119,-26.0
11120,-19.0
11121,-19.0
11122,-16.0
11123,-20.0
11124,-19.0
11125,-24.0
11126,-31.0
11127,-29.0
11128,-22.0
11129,-21.0
11130,-30.0
11131,-45.0
11132,-50.0
11133,-54.0
11134,-52.0
11135,-54.0
11136,-53.0
11137,-52.0
11138,-51.0
11139,-52.0
11140,-54.0
11141,-54.0
11142,-53.0
11143,-52.0
11144,-52.0
11145,-53.0
11146,-47.0
11147,-33.0
11148,-9.0
11149,-38.0
11150,-96.0
11151,-189.0
11152,-250.0
11153,-284.0
11154,-296.0
11155,-289.0
11156,-265.0
11157,-243.0
11158,-226.0
11159,-212.0
11160,-193.0
11161,-160.0
11162,-131.0
11163,-108.0
11164,-82.0
11165,-53.0
11166,-27.0
11167,-8.0
11168,5.0
11169,12.0
11170,15.0
11171,18.0
11172,23.0
11173,24.0
11174,24.0
11175,27.0
11176,28.0
11177,30.0
11178,34.0
11179,36.0
11180,35.0
11181,37.0
11182,39.0
11183,34.0
11184,34.0
11185,39.0
11186,40.0
11187,40.0
11188,39.0
11189,37.0
11190,32.0
11191,31.0
11192,32.0
11193,31.0
11194,26.0
11195,22.0
11196,18.0
11197,14.0
11198,10.0
11199,7.0
11200,0.0
11201,-5.0
11202,-12.0
11203,-17.0
11204,-22.0
11205,-27.0
11206,-26.0
11207,-33.0
11208,-36.0
11209,-34.0
11210,-38.0
11211,-39.0
11212,-40.0
11213,-36.0
11214,-39.0
11215,-39.0
11216,-40.0
11217,-42.0
11218,-37.0
11219,-39.0
11220,-41.0
11221,-44.0
11222,-45.0
11223,-45.0
11224,-43.0
11225,-45.0
11226,-49.0
11227,-56.0
11228,-55.0
11229,-54.0
11230,-54.0
11231,-55.0
11232,-58.0
11233,-58.0
11234,-57.0
11235,-60.0
11236,-61.0
11237,-65.0
11238,-62.0
11239,-61.0
11240,-61.0
11241,-62.0
11242,-63.0
11243,-59.0
11244,-50.0
11245,-46.0
11246,-42.0
11247,-43.0
11248,-42.0
11249,-48.0
11250,-51.0
11251,-55.0
11252,-48.0
11253,-44.0
11254,-51.0
11255,-64.0
11256,-70.0
11257,-77.0
11258,-78.0
11259,-78.0
11260,-75.0
11261,-76.0
11262,-77.0
11263,-77.0
11264,-76.0
11265,-72.0
11266,-77.0
11267,-75.0
11268,-76.0
11269,-74.0
11270,-72.0
11271,-65.0
11272,-48.0
11273,-37.0
11274,-69.0
11275,-140.0
11276,-225.0
11277,-280.0
11278,-314.0
11279,-326.0
11280,-306.0
11281,-278.0
11282,-251.0
11283,-230.0
11284,-222.0
11285,-195.0
11286,-154.0
11287,-131.0
11288,-111.0
11289,-77.0
11290,-53.0
11291,-30.0
11292,-13.0
11293,-2.0
11294,1.0
11295,3.0
11296,8.0
11297,10.0
11298,12.0
11299,17.0
11300,19.0
11301,21.0
11302,20.0
11303,23.0
11304,29.0
11305,27.0
11306,31.0
11307,29.0
11308,30.0
11309,31.0
11310,33.0
11311,33.0
11312,31.0
11313,30.0
11314,28.0
11315,32.0
11316,31.0
11317,27.0
11318,27.0
11319,22.0
11320,23.0
11321,16.0
11322,13.0
11323,8.0
11324,5.0
11325,0.0
11326,-3.0
11327,-10.0
11328,-11.0
11329,-18.0
11330,-16.0
11331,-22.0
11332,-23.0
11333,-20.0
11334,-23.0
11335,-23.0
11336,-24.0
11337,-22.0
11338,-24.0
11339,-22.0
11340,-22.0
11341,-22.0
11342,-23.0
11343,-23.0
11344,-20.0
11345,-22.0
11346,-24.0
11347,-23.0
11348,-23.0
11349,-24.0
11350,-28.0
11351,-27.0
11352,-27.0
11353,-30.0
11354,-31.0
11355,-32.0
11356,-32.0
11357,-32.0
11358,-35.0
11359,-32.0
11360,-34.0
11361,-33.0
11362,-37.0
11363,-36.0
11364,-37.0
11365,-28.0
11366,-23.0
11367,-20.0
11368,-16.0
11369,-10.0
11370,-8.0
11371,-11.0
11372,-17.0
11373,-20.0
11374,-23.0
11375,-20.0
11376,-12.0
11377,-13.0
11378,-24.0
11379,-35.0
11380,-44.0
11381,-44.0
11382,-45.0
11383,-47.0
11384,-47.0
11385,-47.0
11386,-46.0
11387,-45.0
11388,-42.0
11389,-46.0
11390,-46.0
11391,-48.0
11392,-37.0
11393,-42.0
11394,-40.0
11395,-19.0
11396,3.0
11397,-21.0
11398,-83.0
11399,-171.0
11400,-236.0
11401,-277.0
11402,-289.0
11403,-286.0
11404,-270.0
11405,-250.0
11406,-228.0
11407,-207.0
11408,-187.0
11409,-155.0
11410,-125.0
11411,-102.0
11412,-76.0
11413,-48.0
11414,-22.0
11415,0.0
11416,11.0
11417,19.0
11418,30.0
11419,31.0
11420,37.0
11421,39.0
11422,39.0
11423,39.0
11424,42.0
11425,44.0
11426,48.0
11427,49.0
11428,49.0
11429,49.0
11430,51.0
11431,53.0
11432,54.0
11433,53.0
11434,52.0
11435,56.0
11436,53.0
11437,54.0
11438,53.0
11439,54.0
11440,46.0
11441,46.0
11442,43.0
11443,39.0
11444,36.0
11445,33.0
11446,33.0
11447,25.0
11448,20.0
11449,14.0
11450,9.0
11451,2.0
11452,-1.0
11453,-6.0
11454,-12.0
11455,-15.0
11456,-18.0
11457,-17.0
11458,-21.0
11459,-22.0
11460,-23.0
11461,-22.0
11462,-24.0
11463,-27.0
11464,-24.0
11465,-26.0
11466,-25.0
11467,-22.0
11468,-27.0
11469,-23.0
11470,-23.0
